Dust emission from Draine & Li (2007): ApJ 657, 810-837
================================================================
        11 = grain model
 4.000E-08 4.000E-01 0.000E+00 = a_01 (cm) , sigma_1 , b_C1/0.92
 2.500E-07 4.000E-01 0.000E+00 = a_02 (cm) , sigma_2 , b_C2/0.92
 7.000E+00 7.000E+00 1.000E+00 = Umin , Umax, beta (dN/dU propto U^{-beta})
 7.000E+00 = <U> 
     mmp83 = radfield
 3.870E-24 = power/H (erg s-1)
 band   nu*P_nu(band) j_nu(band)
 (um)   (erg s-1 H-1)(Jy cm2 sr-1 H-1)
1.270E+00  3.935E-27  1.326E-19 COBE-DIRBE
2.220E+00  6.592E-27  3.882E-19 COBE-DIRBE
3.530E+00  1.124E-26  1.053E-18 COBE-DIRBE
4.880E+00  8.467E-27  1.096E-18 COBE-DIRBE
1.229E+01  1.009E-25  3.289E-17 COBE-DIRBE
2.079E+01  1.631E-25  8.996E-17 COBE-DIRBE
5.599E+01  1.465E-24  2.176E-15 COBE-DIRBE
9.770E+01  2.967E-24  7.688E-15 COBE-DIRBE
1.479E+02  2.102E-24  8.246E-15 COBE-DIRBE
2.479E+02  6.067E-25  3.989E-15 COBE-DIRBE
1.200E+01  9.940E-26  3.164E-17 IRAS
2.500E+01  1.761E-25  1.168E-16 IRAS
6.000E+01  1.682E-24  2.677E-15 IRAS
1.000E+02  2.973E-24  7.886E-15 IRAS
3.550E+00  1.201E-26  1.131E-18 SST-IRAC
4.493E+00  7.962E-27  9.489E-19 SST-IRAC
5.731E+00  1.803E-26  2.741E-18 SST-IRAC
7.872E+00  7.164E-26  1.496E-17 SST-IRAC
2.368E+01  1.677E-25  1.053E-16 SST-MIPS
7.142E+01  2.189E-24  4.147E-15 SST-MIPS
1.559E+02  1.812E-24  7.495E-15 SST-MIPS
1.600E+01  1.001E-25  4.250E-17 SST-IRSPU
2.200E+01  1.731E-25  1.010E-16 SST-IRSPU











lambda    nu*dP/dnu     j_nu
 (um)   (erg s-1 H-1)(Jy cm2 sr-1 H-1)
1.000E+04  1.641E-31  4.353E-20
9.908E+03  1.701E-31  4.470E-20
9.817E+03  1.762E-31  4.589E-20
9.727E+03  1.826E-31  4.712E-20
9.638E+03  1.893E-31  4.839E-20
9.550E+03  1.961E-31  4.968E-20
9.462E+03  2.032E-31  5.101E-20
9.376E+03  2.106E-31  5.238E-20
9.290E+03  2.183E-31  5.378E-20
9.204E+03  2.262E-31  5.522E-20
9.120E+03  2.344E-31  5.670E-20
9.036E+03  2.429E-31  5.822E-20
8.954E+03  2.517E-31  5.977E-20
8.872E+03  2.607E-31  6.136E-20
8.790E+03  2.701E-31  6.299E-20
8.710E+03  2.799E-31  6.467E-20
8.630E+03  2.900E-31  6.639E-20
8.551E+03  3.005E-31  6.816E-20
8.472E+03  3.114E-31  6.997E-20
8.395E+03  3.226E-31  7.184E-20
8.318E+03  3.343E-31  7.376E-20
8.241E+03  3.464E-31  7.573E-20
8.166E+03  3.590E-31  7.776E-20
8.091E+03  3.720E-31  7.984E-20
8.017E+03  3.855E-31  8.198E-20
7.943E+03  3.995E-31  8.418E-20
7.870E+03  4.140E-31  8.644E-20
7.798E+03  4.291E-31  8.876E-20
7.727E+03  4.447E-31  9.115E-20
7.656E+03  4.609E-31  9.360E-20
7.586E+03  4.777E-31  9.612E-20
7.516E+03  4.951E-31  9.871E-20
7.447E+03  5.132E-31  1.014E-19
7.379E+03  5.319E-31  1.041E-19
7.311E+03  5.513E-31  1.069E-19
7.244E+03  5.715E-31  1.098E-19
7.178E+03  5.924E-31  1.128E-19
7.112E+03  6.140E-31  1.158E-19
7.047E+03  6.365E-31  1.190E-19
6.982E+03  6.598E-31  1.222E-19
6.918E+03  6.839E-31  1.255E-19
6.855E+03  7.089E-31  1.289E-19
6.792E+03  7.349E-31  1.324E-19
6.730E+03  7.618E-31  1.360E-19
6.668E+03  7.898E-31  1.397E-19
6.607E+03  8.187E-31  1.435E-19
6.546E+03  8.488E-31  1.474E-19
6.486E+03  8.800E-31  1.514E-19
6.427E+03  9.123E-31  1.555E-19
6.368E+03  9.459E-31  1.598E-19
6.310E+03  9.807E-31  1.641E-19
6.252E+03  1.017E-30  1.686E-19
6.194E+03  1.054E-30  1.732E-19
6.138E+03  1.093E-30  1.780E-19
6.081E+03  1.133E-30  1.828E-19
6.026E+03  1.175E-30  1.879E-19
5.970E+03  1.219E-30  1.930E-19
5.916E+03  1.264E-30  1.983E-19
5.861E+03  1.311E-30  2.038E-19
5.808E+03  1.359E-30  2.094E-19
5.754E+03  1.409E-30  2.151E-19
5.702E+03  1.462E-30  2.211E-19
5.649E+03  1.516E-30  2.272E-19
5.598E+03  1.572E-30  2.334E-19
5.546E+03  1.630E-30  2.399E-19
5.495E+03  1.691E-30  2.465E-19
5.445E+03  1.754E-30  2.533E-19
5.395E+03  1.819E-30  2.603E-19
5.346E+03  1.887E-30  2.675E-19
5.297E+03  1.957E-30  2.750E-19
5.248E+03  2.030E-30  2.826E-19
5.200E+03  2.106E-30  2.904E-19
5.152E+03  2.184E-30  2.985E-19
5.105E+03  2.266E-30  3.068E-19
5.058E+03  2.350E-30  3.153E-19
5.012E+03  2.438E-30  3.241E-19
4.966E+03  2.529E-30  3.331E-19
4.920E+03  2.624E-30  3.424E-19
4.875E+03  2.722E-30  3.520E-19
4.831E+03  2.823E-30  3.618E-19
4.786E+03  2.929E-30  3.719E-19
4.742E+03  3.039E-30  3.823E-19
4.699E+03  3.153E-30  3.930E-19
4.656E+03  3.271E-30  4.040E-19
4.613E+03  3.394E-30  4.153E-19
4.571E+03  3.521E-30  4.270E-19
4.529E+03  3.654E-30  4.389E-19
4.487E+03  3.791E-30  4.513E-19
4.446E+03  3.934E-30  4.640E-19
4.406E+03  4.082E-30  4.770E-19
4.365E+03  4.236E-30  4.905E-19
4.325E+03  4.396E-30  5.043E-19
4.285E+03  4.562E-30  5.185E-19
4.246E+03  4.734E-30  5.332E-19
4.207E+03  4.913E-30  5.483E-19
4.169E+03  5.098E-30  5.638E-19
4.130E+03  5.291E-30  5.797E-19
4.093E+03  5.492E-30  5.962E-19
4.055E+03  5.700E-30  6.131E-19
4.018E+03  5.916E-30  6.305E-19
3.981E+03  6.140E-30  6.483E-19
3.945E+03  6.372E-30  6.667E-19
3.908E+03  6.614E-30  6.856E-19
3.873E+03  6.864E-30  7.051E-19
3.837E+03  7.125E-30  7.252E-19
3.802E+03  7.395E-30  7.458E-19
3.767E+03  7.677E-30  7.671E-19
3.733E+03  7.969E-30  7.890E-19
3.698E+03  8.272E-30  8.115E-19
3.664E+03  8.587E-30  8.347E-19
3.631E+03  8.915E-30  8.586E-19
3.597E+03  9.255E-30  8.831E-19
3.565E+03  9.608E-30  9.085E-19
3.532E+03  9.975E-30  9.345E-19
3.499E+03  1.036E-29  9.614E-19
3.467E+03  1.075E-29  9.890E-19
3.436E+03  1.116E-29  1.017E-18
3.404E+03  1.159E-29  1.047E-18
3.373E+03  1.204E-29  1.077E-18
3.342E+03  1.250E-29  1.108E-18
3.311E+03  1.298E-29  1.140E-18
3.281E+03  1.348E-29  1.173E-18
3.251E+03  1.400E-29  1.207E-18
3.221E+03  1.454E-29  1.242E-18
3.192E+03  1.510E-29  1.278E-18
3.162E+03  1.568E-29  1.315E-18
3.133E+03  1.628E-29  1.353E-18
3.105E+03  1.691E-29  1.393E-18
3.076E+03  1.756E-29  1.433E-18
3.048E+03  1.824E-29  1.475E-18
3.020E+03  1.895E-29  1.518E-18
2.992E+03  1.968E-29  1.562E-18
2.965E+03  2.044E-29  1.607E-18
2.938E+03  2.123E-29  1.654E-18
2.911E+03  2.205E-29  1.702E-18
2.884E+03  2.290E-29  1.752E-18
2.858E+03  2.378E-29  1.803E-18
2.831E+03  2.470E-29  1.855E-18
2.805E+03  2.566E-29  1.910E-18
2.780E+03  2.665E-29  1.965E-18
2.754E+03  2.769E-29  2.023E-18
2.729E+03  2.876E-29  2.082E-18
2.704E+03  2.988E-29  2.143E-18
2.679E+03  3.104E-29  2.206E-18
2.655E+03  3.225E-29  2.271E-18
2.630E+03  3.350E-29  2.338E-18
2.606E+03  3.481E-29  2.406E-18
2.582E+03  3.617E-29  2.477E-18
2.559E+03  3.758E-29  2.550E-18
2.535E+03  3.904E-29  2.625E-18
2.512E+03  4.057E-29  2.703E-18
2.489E+03  4.215E-29  2.783E-18
2.466E+03  4.380E-29  2.865E-18
2.443E+03  4.551E-29  2.950E-18
2.421E+03  4.730E-29  3.037E-18
2.399E+03  4.915E-29  3.127E-18
2.377E+03  5.107E-29  3.220E-18
2.355E+03  5.308E-29  3.316E-18
2.333E+03  5.516E-29  3.414E-18
2.312E+03  5.732E-29  3.516E-18
2.291E+03  5.958E-29  3.620E-18
2.270E+03  6.192E-29  3.728E-18
2.249E+03  6.435E-29  3.839E-18
2.228E+03  6.688E-29  3.954E-18
2.208E+03  6.952E-29  4.071E-18
2.188E+03  7.225E-29  4.193E-18
2.168E+03  7.510E-29  4.318E-18
2.148E+03  7.806E-29  4.447E-18
2.128E+03  8.114E-29  4.580E-18
2.109E+03  8.434E-29  4.717E-18
2.089E+03  8.767E-29  4.858E-18
2.070E+03  9.113E-29  5.004E-18
2.051E+03  9.473E-29  5.154E-18
2.032E+03  9.847E-29  5.308E-18
2.014E+03  1.024E-28  5.468E-18
1.995E+03  1.064E-28  5.632E-18
1.977E+03  1.106E-28  5.801E-18
1.959E+03  1.150E-28  5.975E-18
1.941E+03  1.195E-28  6.154E-18
1.923E+03  1.243E-28  6.339E-18
1.905E+03  1.292E-28  6.529E-18
1.888E+03  1.343E-28  6.726E-18
1.871E+03  1.396E-28  6.928E-18
1.854E+03  1.452E-28  7.137E-18
1.837E+03  1.509E-28  7.352E-18
1.820E+03  1.569E-28  7.573E-18
1.803E+03  1.631E-28  7.801E-18
1.786E+03  1.696E-28  8.037E-18
1.770E+03  1.763E-28  8.279E-18
1.754E+03  1.833E-28  8.529E-18
1.738E+03  1.906E-28  8.786E-18
1.722E+03  1.982E-28  9.052E-18
1.706E+03  2.061E-28  9.325E-18
1.690E+03  2.142E-28  9.607E-18
1.675E+03  2.228E-28  9.897E-18
1.660E+03  2.316E-28  1.020E-17
1.644E+03  2.408E-28  1.050E-17
1.629E+03  2.504E-28  1.082E-17
1.614E+03  2.604E-28  1.115E-17
1.600E+03  2.707E-28  1.149E-17
1.585E+03  2.815E-28  1.183E-17
1.570E+03  2.927E-28  1.219E-17
1.556E+03  3.044E-28  1.256E-17
1.542E+03  3.165E-28  1.294E-17
1.528E+03  3.291E-28  1.333E-17
1.514E+03  3.422E-28  1.374E-17
1.500E+03  3.558E-28  1.415E-17
1.486E+03  3.700E-28  1.458E-17
1.472E+03  3.847E-28  1.502E-17
1.459E+03  4.000E-28  1.548E-17
1.445E+03  4.160E-28  1.595E-17
1.432E+03  4.326E-28  1.643E-17
1.419E+03  4.498E-28  1.693E-17
1.406E+03  4.678E-28  1.745E-17
1.393E+03  4.864E-28  1.797E-17
1.380E+03  5.058E-28  1.852E-17
1.368E+03  5.260E-28  1.908E-17
1.355E+03  5.469E-28  1.966E-17
1.343E+03  5.687E-28  2.026E-17
1.330E+03  5.914E-28  2.087E-17
1.318E+03  6.150E-28  2.150E-17
1.306E+03  6.395E-28  2.216E-17
1.294E+03  6.650E-28  2.283E-17
1.282E+03  6.915E-28  2.352E-17
1.271E+03  7.190E-28  2.423E-17
1.259E+03  7.477E-28  2.497E-17
1.247E+03  7.774E-28  2.572E-17
1.236E+03  8.084E-28  2.650E-17
1.225E+03  8.406E-28  2.730E-17
1.213E+03  8.740E-28  2.813E-17
1.202E+03  9.088E-28  2.898E-17
1.191E+03  9.449E-28  2.986E-17
1.180E+03  9.825E-28  3.076E-17
1.169E+03  1.022E-27  3.169E-17
1.159E+03  1.062E-27  3.265E-17
1.148E+03  1.104E-27  3.363E-17
1.138E+03  1.148E-27  3.465E-17
1.127E+03  1.194E-27  3.569E-17
1.117E+03  1.241E-27  3.677E-17
1.107E+03  1.290E-27  3.788E-17
1.096E+03  1.342E-27  3.902E-17
1.086E+03  1.395E-27  4.019E-17
1.076E+03  1.450E-27  4.140E-17
1.067E+03  1.507E-27  4.265E-17
1.057E+03  1.567E-27  4.393E-17
1.047E+03  1.629E-27  4.525E-17
1.038E+03  1.693E-27  4.661E-17
1.028E+03  1.760E-27  4.800E-17
1.019E+03  1.830E-27  4.944E-17
1.009E+03  1.902E-27  5.092E-17
1.000E+03  1.977E-27  5.244E-17
9.908E+02  2.055E-27  5.402E-17
9.817E+02  2.136E-27  5.564E-17
9.727E+02  2.221E-27  5.730E-17
9.638E+02  2.308E-27  5.901E-17
9.550E+02  2.399E-27  6.078E-17
9.462E+02  2.494E-27  6.259E-17
9.376E+02  2.592E-27  6.446E-17
9.290E+02  2.694E-27  6.638E-17
9.204E+02  2.800E-27  6.836E-17
9.120E+02  2.910E-27  7.040E-17
9.036E+02  3.024E-27  7.249E-17
8.954E+02  3.143E-27  7.464E-17
8.872E+02  3.266E-27  7.685E-17
8.790E+02  3.394E-27  7.913E-17
8.710E+02  3.526E-27  8.147E-17
8.630E+02  3.664E-27  8.387E-17
8.551E+02  3.807E-27  8.634E-17
8.472E+02  3.955E-27  8.889E-17
8.395E+02  4.109E-27  9.150E-17
8.318E+02  4.269E-27  9.419E-17
8.241E+02  4.435E-27  9.695E-17
8.166E+02  4.607E-27  9.979E-17
8.091E+02  4.786E-27  1.027E-16
8.017E+02  4.971E-27  1.057E-16
7.943E+02  5.163E-27  1.088E-16
7.870E+02  5.363E-27  1.120E-16
7.798E+02  5.570E-27  1.152E-16
7.727E+02  5.785E-27  1.186E-16
7.656E+02  6.008E-27  1.220E-16
7.586E+02  6.239E-27  1.255E-16
7.516E+02  6.479E-27  1.292E-16
7.447E+02  6.728E-27  1.329E-16
7.379E+02  6.988E-27  1.368E-16
7.311E+02  7.257E-27  1.407E-16
7.244E+02  7.536E-27  1.448E-16
7.178E+02  7.827E-27  1.490E-16
7.112E+02  8.128E-27  1.533E-16
7.047E+02  8.441E-27  1.578E-16
6.982E+02  8.765E-27  1.623E-16
6.918E+02  9.102E-27  1.670E-16
6.855E+02  9.452E-27  1.719E-16
6.792E+02  9.815E-27  1.768E-16
6.730E+02  1.019E-26  1.819E-16
6.668E+02  1.058E-26  1.871E-16
6.607E+02  1.098E-26  1.925E-16
6.546E+02  1.141E-26  1.981E-16
6.486E+02  1.184E-26  2.038E-16
6.427E+02  1.230E-26  2.097E-16
6.368E+02  1.277E-26  2.158E-16
6.310E+02  1.326E-26  2.220E-16
6.252E+02  1.377E-26  2.284E-16
6.194E+02  1.430E-26  2.350E-16
6.138E+02  1.485E-26  2.418E-16
6.081E+02  1.542E-26  2.488E-16
6.026E+02  1.601E-26  2.560E-16
5.970E+02  1.663E-26  2.633E-16
5.916E+02  1.727E-26  2.709E-16
5.861E+02  1.793E-26  2.788E-16
5.808E+02  1.862E-26  2.868E-16
5.754E+02  1.933E-26  2.951E-16
5.702E+02  2.007E-26  3.036E-16
5.649E+02  2.084E-26  3.123E-16
5.598E+02  2.164E-26  3.213E-16
5.546E+02  2.247E-26  3.306E-16
5.495E+02  2.333E-26  3.401E-16
5.445E+02  2.423E-26  3.499E-16
5.395E+02  2.515E-26  3.600E-16
5.346E+02  2.612E-26  3.703E-16
5.297E+02  2.712E-26  3.810E-16
5.248E+02  2.816E-26  3.920E-16
5.200E+02  2.923E-26  4.032E-16
5.152E+02  3.035E-26  4.148E-16
5.105E+02  3.151E-26  4.267E-16
5.058E+02  3.272E-26  4.390E-16
5.012E+02  3.397E-26  4.516E-16
4.966E+02  3.526E-26  4.645E-16
4.920E+02  3.661E-26  4.778E-16
4.875E+02  3.801E-26  4.915E-16
4.831E+02  3.946E-26  5.056E-16
4.786E+02  4.096E-26  5.200E-16
4.742E+02  4.252E-26  5.349E-16
4.699E+02  4.414E-26  5.501E-16
4.656E+02  4.582E-26  5.658E-16
4.613E+02  4.756E-26  5.820E-16
4.571E+02  4.937E-26  5.985E-16
4.529E+02  5.124E-26  6.156E-16
4.487E+02  5.318E-26  6.331E-16
4.446E+02  5.520E-26  6.510E-16
4.406E+02  5.729E-26  6.695E-16
4.365E+02  5.946E-26  6.884E-16
4.325E+02  6.170E-26  7.079E-16
4.285E+02  6.404E-26  7.279E-16
4.246E+02  6.645E-26  7.485E-16
4.207E+02  6.896E-26  7.696E-16
4.169E+02  7.156E-26  7.913E-16
4.130E+02  7.425E-26  8.135E-16
4.093E+02  7.705E-26  8.364E-16
4.055E+02  7.995E-26  8.599E-16
4.018E+02  8.295E-26  8.841E-16
3.981E+02  8.606E-26  9.088E-16
3.945E+02  8.929E-26  9.343E-16
3.908E+02  9.264E-26  9.605E-16
3.873E+02  9.611E-26  9.873E-16
3.837E+02  9.971E-26  1.015E-15
3.802E+02  1.034E-25  1.043E-15
3.767E+02  1.073E-25  1.072E-15
3.733E+02  1.113E-25  1.102E-15
3.698E+02  1.154E-25  1.133E-15
3.664E+02  1.197E-25  1.164E-15
3.631E+02  1.242E-25  1.196E-15
3.597E+02  1.288E-25  1.229E-15
3.565E+02  1.336E-25  1.263E-15
3.532E+02  1.385E-25  1.298E-15
3.499E+02  1.436E-25  1.333E-15
3.467E+02  1.489E-25  1.370E-15
3.436E+02  1.544E-25  1.407E-15
3.404E+02  1.601E-25  1.445E-15
3.373E+02  1.660E-25  1.485E-15
3.342E+02  1.720E-25  1.525E-15
3.311E+02  1.783E-25  1.566E-15
3.281E+02  1.848E-25  1.609E-15
3.251E+02  1.916E-25  1.652E-15
3.221E+02  1.985E-25  1.696E-15
3.192E+02  2.058E-25  1.742E-15
3.162E+02  2.132E-25  1.788E-15
3.133E+02  2.209E-25  1.836E-15
3.105E+02  2.289E-25  1.885E-15
3.076E+02  2.371E-25  1.935E-15
3.048E+02  2.456E-25  1.986E-15
3.020E+02  2.544E-25  2.038E-15
2.992E+02  2.635E-25  2.092E-15
2.965E+02  2.729E-25  2.146E-15
2.938E+02  2.826E-25  2.202E-15
2.911E+02  2.927E-25  2.260E-15
2.884E+02  3.030E-25  2.318E-15
2.858E+02  3.137E-25  2.378E-15
2.831E+02  3.248E-25  2.439E-15
2.805E+02  3.362E-25  2.502E-15
2.780E+02  3.479E-25  2.565E-15
2.754E+02  3.601E-25  2.631E-15
2.729E+02  3.726E-25  2.697E-15
2.704E+02  3.856E-25  2.766E-15
2.679E+02  3.991E-25  2.836E-15
2.655E+02  4.129E-25  2.908E-15
2.630E+02  4.272E-25  2.981E-15
2.606E+02  4.420E-25  3.056E-15
2.582E+02  4.572E-25  3.132E-15
2.559E+02  4.728E-25  3.209E-15
2.535E+02  4.887E-25  3.287E-15
2.512E+02  5.051E-25  3.365E-15
2.489E+02  5.216E-25  3.443E-15
2.466E+02  5.381E-25  3.520E-15
2.443E+02  5.550E-25  3.597E-15
2.421E+02  5.721E-25  3.674E-15
2.399E+02  5.896E-25  3.752E-15
2.377E+02  6.071E-25  3.828E-15
2.355E+02  6.249E-25  3.904E-15
2.333E+02  6.433E-25  3.982E-15
2.312E+02  6.620E-25  4.060E-15
2.291E+02  6.812E-25  4.139E-15
2.270E+02  7.008E-25  4.219E-15
2.249E+02  7.208E-25  4.300E-15
2.228E+02  7.413E-25  4.382E-15
2.208E+02  7.622E-25  4.464E-15
2.188E+02  7.835E-25  4.547E-15
2.168E+02  8.054E-25  4.631E-15
2.148E+02  8.276E-25  4.715E-15
2.128E+02  8.503E-25  4.800E-15
2.109E+02  8.734E-25  4.885E-15
2.089E+02  8.970E-25  4.971E-15
2.070E+02  9.210E-25  5.058E-15
2.051E+02  9.454E-25  5.144E-15
2.032E+02  9.703E-25  5.231E-15
2.014E+02  9.957E-25  5.319E-15
1.995E+02  1.022E-24  5.406E-15
1.977E+02  1.048E-24  5.494E-15
1.959E+02  1.074E-24  5.582E-15
1.941E+02  1.101E-24  5.671E-15
1.923E+02  1.129E-24  5.759E-15
1.905E+02  1.157E-24  5.848E-15
1.888E+02  1.185E-24  5.936E-15
1.871E+02  1.214E-24  6.025E-15
1.854E+02  1.243E-24  6.113E-15
1.837E+02  1.273E-24  6.202E-15
1.820E+02  1.303E-24  6.290E-15
1.803E+02  1.334E-24  6.378E-15
1.786E+02  1.365E-24  6.466E-15
1.770E+02  1.396E-24  6.554E-15
1.754E+02  1.427E-24  6.641E-15
1.738E+02  1.460E-24  6.728E-15
1.722E+02  1.492E-24  6.815E-15
1.706E+02  1.525E-24  6.901E-15
1.690E+02  1.558E-24  6.987E-15
1.675E+02  1.592E-24  7.072E-15
1.660E+02  1.626E-24  7.157E-15
1.644E+02  1.660E-24  7.241E-15
1.629E+02  1.695E-24  7.325E-15
1.614E+02  1.730E-24  7.409E-15
1.600E+02  1.766E-24  7.492E-15
1.585E+02  1.802E-24  7.575E-15
1.570E+02  1.838E-24  7.657E-15
1.556E+02  1.875E-24  7.739E-15
1.542E+02  1.912E-24  7.821E-15
1.528E+02  1.950E-24  7.902E-15
1.514E+02  1.988E-24  7.983E-15
1.500E+02  2.027E-24  8.064E-15
1.486E+02  2.066E-24  8.145E-15
1.472E+02  2.106E-24  8.226E-15
1.459E+02  2.146E-24  8.305E-15
1.445E+02  2.186E-24  8.382E-15
1.432E+02  2.226E-24  8.456E-15
1.419E+02  2.265E-24  8.525E-15
1.406E+02  2.302E-24  8.586E-15
1.393E+02  2.338E-24  8.639E-15
1.380E+02  2.371E-24  8.682E-15
1.368E+02  2.402E-24  8.716E-15
1.355E+02  2.432E-24  8.741E-15
1.343E+02  2.459E-24  8.760E-15
1.330E+02  2.486E-24  8.775E-15
1.318E+02  2.513E-24  8.786E-15
1.306E+02  2.539E-24  8.795E-15
1.294E+02  2.564E-24  8.803E-15
1.282E+02  2.590E-24  8.810E-15
1.271E+02  2.615E-24  8.815E-15
1.259E+02  2.641E-24  8.819E-15
1.247E+02  2.666E-24  8.821E-15
1.236E+02  2.691E-24  8.822E-15
1.225E+02  2.716E-24  8.822E-15
1.213E+02  2.740E-24  8.819E-15
1.202E+02  2.764E-24  8.815E-15
1.191E+02  2.787E-24  8.808E-15
1.180E+02  2.810E-24  8.799E-15
1.169E+02  2.832E-24  8.786E-15
1.159E+02  2.854E-24  8.771E-15
1.148E+02  2.874E-24  8.754E-15
1.138E+02  2.894E-24  8.734E-15
1.127E+02  2.913E-24  8.711E-15
1.117E+02  2.932E-24  8.686E-15
1.107E+02  2.950E-24  8.659E-15
1.096E+02  2.967E-24  8.629E-15
1.086E+02  2.983E-24  8.597E-15
1.076E+02  2.998E-24  8.561E-15
1.067E+02  3.012E-24  8.523E-15
1.057E+02  3.026E-24  8.482E-15
1.047E+02  3.038E-24  8.438E-15
1.038E+02  3.049E-24  8.391E-15
1.028E+02  3.059E-24  8.342E-15
1.019E+02  3.068E-24  8.288E-15
1.009E+02  3.075E-24  8.232E-15
1.000E+02  3.081E-24  8.174E-15
9.908E+01  3.086E-24  8.112E-15
9.817E+01  3.090E-24  8.047E-15
9.727E+01  3.093E-24  7.980E-15
9.638E+01  3.094E-24  7.910E-15
9.550E+01  3.094E-24  7.837E-15
9.462E+01  3.093E-24  7.762E-15
9.376E+01  3.090E-24  7.685E-15
9.290E+01  3.086E-24  7.605E-15
9.204E+01  3.081E-24  7.522E-15
9.120E+01  3.074E-24  7.437E-15
9.036E+01  3.066E-24  7.350E-15
8.954E+01  3.057E-24  7.261E-15
8.872E+01  3.047E-24  7.170E-15
8.790E+01  3.035E-24  7.077E-15
8.710E+01  3.023E-24  6.983E-15
8.630E+01  3.009E-24  6.887E-15
8.551E+01  2.993E-24  6.789E-15
8.472E+01  2.977E-24  6.689E-15
8.395E+01  2.959E-24  6.588E-15
8.318E+01  2.940E-24  6.485E-15
8.241E+01  2.919E-24  6.382E-15
8.166E+01  2.898E-24  6.277E-15
8.091E+01  2.876E-24  6.171E-15
8.017E+01  2.852E-24  6.065E-15
7.943E+01  2.827E-24  5.957E-15
7.870E+01  2.801E-24  5.848E-15
7.798E+01  2.774E-24  5.739E-15
7.727E+01  2.746E-24  5.629E-15
7.656E+01  2.718E-24  5.519E-15
7.586E+01  2.688E-24  5.409E-15
7.516E+01  2.657E-24  5.298E-15
7.447E+01  2.626E-24  5.187E-15
7.379E+01  2.593E-24  5.076E-15
7.311E+01  2.560E-24  4.964E-15
7.244E+01  2.525E-24  4.853E-15
7.178E+01  2.491E-24  4.742E-15
7.112E+01  2.455E-24  4.631E-15
7.047E+01  2.419E-24  4.522E-15
6.982E+01  2.383E-24  4.413E-15
6.918E+01  2.346E-24  4.305E-15
6.855E+01  2.308E-24  4.197E-15
6.792E+01  2.270E-24  4.090E-15
6.730E+01  2.231E-24  3.983E-15
6.668E+01  2.193E-24  3.878E-15
6.607E+01  2.154E-24  3.774E-15
6.546E+01  2.114E-24  3.672E-15
6.486E+01  2.075E-24  3.570E-15
6.427E+01  2.035E-24  3.469E-15
6.368E+01  1.995E-24  3.370E-15
6.310E+01  1.955E-24  3.272E-15
6.252E+01  1.915E-24  3.176E-15
6.194E+01  1.876E-24  3.082E-15
6.138E+01  1.836E-24  2.989E-15
6.081E+01  1.796E-24  2.898E-15
6.026E+01  1.757E-24  2.808E-15
5.970E+01  1.718E-24  2.720E-15
5.916E+01  1.678E-24  2.634E-15
5.861E+01  1.639E-24  2.549E-15
5.808E+01  1.601E-24  2.466E-15
5.754E+01  1.562E-24  2.385E-15
5.702E+01  1.524E-24  2.305E-15
5.649E+01  1.487E-24  2.228E-15
5.598E+01  1.449E-24  2.152E-15
5.546E+01  1.413E-24  2.079E-15
5.495E+01  1.377E-24  2.007E-15
5.445E+01  1.341E-24  1.937E-15
5.395E+01  1.306E-24  1.869E-15
5.346E+01  1.272E-24  1.803E-15
5.297E+01  1.238E-24  1.739E-15
5.248E+01  1.204E-24  1.676E-15
5.200E+01  1.171E-24  1.616E-15
5.152E+01  1.139E-24  1.557E-15
5.105E+01  1.108E-24  1.500E-15
5.058E+01  1.077E-24  1.445E-15
5.012E+01  1.046E-24  1.391E-15
4.966E+01  1.017E-24  1.339E-15
