Dust emission from Draine & Li (2007): ApJ 657, 810-837
================================================================
        10 = grain model
 4.000E-08 4.000E-01 5.000E-06 = a_01 (cm) , sigma_1 , b_C1/0.92
 2.500E-07 4.000E-01 5.000E-06 = a_02 (cm) , sigma_2 , b_C2/0.92
 1.500E-01 1.000E+03 2.000E+00 = Umin , Umax, beta (dN/dU propto U^{-beta})
 1.321E+00 = <U> 
     mmp83 = radfield
 1.381E-24 = power/H (erg s-1)
 band   nu*P_nu(band) j_nu(band)
 (um)   (erg s-1 H-1)(Jy cm2 sr-1 H-1)
1.270E+00  3.833E-27  1.291E-19 COBE-DIRBE
2.220E+00  5.149E-27  3.032E-19 COBE-DIRBE
3.530E+00  2.711E-26  2.539E-18 COBE-DIRBE
4.880E+00  1.306E-26  1.691E-18 COBE-DIRBE
1.229E+01  1.371E-25  4.470E-17 COBE-DIRBE
2.079E+01  1.638E-25  9.031E-17 COBE-DIRBE
5.599E+01  5.689E-25  8.449E-16 COBE-DIRBE
9.770E+01  6.124E-25  1.587E-15 COBE-DIRBE
1.479E+02  4.888E-25  1.917E-15 COBE-DIRBE
2.479E+02  2.112E-25  1.389E-15 COBE-DIRBE
1.200E+01  1.374E-25  4.374E-17 IRAS
2.500E+01  1.751E-25  1.161E-16 IRAS
6.000E+01  5.788E-25  9.211E-16 IRAS
1.000E+02  6.090E-25  1.615E-15 IRAS
3.550E+00  3.133E-26  2.950E-18 SST-IRAC
4.493E+00  9.563E-27  1.140E-18 SST-IRAC
5.731E+00  7.116E-26  1.082E-17 SST-IRAC
7.872E+00  1.745E-25  3.643E-17 SST-IRAC
2.368E+01  1.581E-25  9.930E-17 SST-MIPS
7.142E+01  5.707E-25  1.081E-15 SST-MIPS
1.559E+02  4.432E-25  1.833E-15 SST-MIPS
1.600E+01  1.332E-25  5.651E-17 SST-IRSPU
2.200E+01  1.612E-25  9.408E-17 SST-IRSPU











lambda    nu*dP/dnu     j_nu
 (um)   (erg s-1 H-1)(Jy cm2 sr-1 H-1)
1.000E+04  1.575E-31  4.178E-20
9.908E+03  1.632E-31  4.290E-20
9.817E+03  1.692E-31  4.405E-20
9.727E+03  1.753E-31  4.523E-20
9.638E+03  1.816E-31  4.644E-20
9.550E+03  1.882E-31  4.768E-20
9.462E+03  1.950E-31  4.895E-20
9.376E+03  2.021E-31  5.026E-20
9.290E+03  2.094E-31  5.161E-20
9.204E+03  2.170E-31  5.299E-20
9.120E+03  2.249E-31  5.440E-20
9.036E+03  2.330E-31  5.586E-20
8.954E+03  2.415E-31  5.735E-20
8.872E+03  2.502E-31  5.887E-20
8.790E+03  2.592E-31  6.043E-20
8.710E+03  2.685E-31  6.203E-20
8.630E+03  2.782E-31  6.368E-20
8.551E+03  2.882E-31  6.538E-20
8.472E+03  2.986E-31  6.712E-20
8.395E+03  3.094E-31  6.890E-20
8.318E+03  3.206E-31  7.074E-20
8.241E+03  3.322E-31  7.263E-20
8.166E+03  3.442E-31  7.457E-20
8.091E+03  3.567E-31  7.656E-20
8.017E+03  3.696E-31  7.860E-20
7.943E+03  3.830E-31  8.071E-20
7.870E+03  3.969E-31  8.287E-20
7.798E+03  4.113E-31  8.509E-20
7.727E+03  4.263E-31  8.737E-20
7.656E+03  4.418E-31  8.971E-20
7.586E+03  4.578E-31  9.212E-20
7.516E+03  4.745E-31  9.460E-20
7.447E+03  4.917E-31  9.714E-20
7.379E+03  5.096E-31  9.976E-20
7.311E+03  5.282E-31  1.024E-19
7.244E+03  5.475E-31  1.052E-19
7.178E+03  5.674E-31  1.080E-19
7.112E+03  5.881E-31  1.110E-19
7.047E+03  6.096E-31  1.139E-19
6.982E+03  6.318E-31  1.170E-19
6.918E+03  6.549E-31  1.202E-19
6.855E+03  6.787E-31  1.234E-19
6.792E+03  7.035E-31  1.267E-19
6.730E+03  7.292E-31  1.302E-19
6.668E+03  7.558E-31  1.337E-19
6.607E+03  7.835E-31  1.373E-19
6.546E+03  8.121E-31  1.410E-19
6.486E+03  8.419E-31  1.448E-19
6.427E+03  8.727E-31  1.488E-19
6.368E+03  9.047E-31  1.528E-19
6.310E+03  9.378E-31  1.570E-19
6.252E+03  9.722E-31  1.612E-19
6.194E+03  1.008E-30  1.656E-19
6.138E+03  1.045E-30  1.701E-19
6.081E+03  1.083E-30  1.748E-19
6.026E+03  1.123E-30  1.795E-19
5.970E+03  1.164E-30  1.844E-19
5.916E+03  1.207E-30  1.894E-19
5.861E+03  1.252E-30  1.946E-19
5.808E+03  1.298E-30  1.999E-19
5.754E+03  1.346E-30  2.054E-19
5.702E+03  1.395E-30  2.110E-19
5.649E+03  1.447E-30  2.168E-19
5.598E+03  1.500E-30  2.227E-19
5.546E+03  1.556E-30  2.288E-19
5.495E+03  1.613E-30  2.351E-19
5.445E+03  1.673E-30  2.416E-19
5.395E+03  1.734E-30  2.482E-19
5.346E+03  1.799E-30  2.550E-19
5.297E+03  1.865E-30  2.620E-19
5.248E+03  1.934E-30  2.693E-19
5.200E+03  2.006E-30  2.767E-19
5.152E+03  2.080E-30  2.843E-19
5.105E+03  2.157E-30  2.921E-19
5.058E+03  2.237E-30  3.002E-19
5.012E+03  2.320E-30  3.085E-19
4.966E+03  2.406E-30  3.170E-19
4.920E+03  2.496E-30  3.257E-19
4.875E+03  2.588E-30  3.347E-19
4.831E+03  2.684E-30  3.440E-19
4.786E+03  2.784E-30  3.535E-19
4.742E+03  2.888E-30  3.633E-19
4.699E+03  2.995E-30  3.733E-19
4.656E+03  3.107E-30  3.837E-19
4.613E+03  3.222E-30  3.943E-19
4.571E+03  3.342E-30  4.052E-19
4.529E+03  3.467E-30  4.165E-19
4.487E+03  3.596E-30  4.281E-19
4.446E+03  3.730E-30  4.400E-19
4.406E+03  3.870E-30  4.522E-19
4.365E+03  4.014E-30  4.648E-19
4.325E+03  4.164E-30  4.777E-19
4.285E+03  4.320E-30  4.911E-19
4.246E+03  4.481E-30  5.048E-19
4.207E+03  4.649E-30  5.188E-19
4.169E+03  4.823E-30  5.333E-19
4.130E+03  5.004E-30  5.482E-19
4.093E+03  5.191E-30  5.636E-19
4.055E+03  5.386E-30  5.793E-19
4.018E+03  5.588E-30  5.956E-19
3.981E+03  5.797E-30  6.122E-19
3.945E+03  6.015E-30  6.293E-19
3.908E+03  6.240E-30  6.469E-19
3.873E+03  6.474E-30  6.650E-19
3.837E+03  6.717E-30  6.837E-19
3.802E+03  6.969E-30  7.028E-19
3.767E+03  7.231E-30  7.226E-19
3.733E+03  7.503E-30  7.428E-19
3.698E+03  7.785E-30  7.637E-19
3.664E+03  8.078E-30  7.852E-19
3.631E+03  8.382E-30  8.073E-19
3.597E+03  8.698E-30  8.300E-19
3.565E+03  9.026E-30  8.534E-19
3.532E+03  9.367E-30  8.775E-19
3.499E+03  9.720E-30  9.023E-19
3.467E+03  1.009E-29  9.278E-19
3.436E+03  1.047E-29  9.540E-19
3.404E+03  1.086E-29  9.810E-19
3.373E+03  1.127E-29  1.009E-18
3.342E+03  1.170E-29  1.037E-18
3.311E+03  1.214E-29  1.067E-18
3.281E+03  1.260E-29  1.097E-18
3.251E+03  1.308E-29  1.128E-18
3.221E+03  1.358E-29  1.160E-18
3.192E+03  1.409E-29  1.193E-18
3.162E+03  1.463E-29  1.227E-18
3.133E+03  1.518E-29  1.262E-18
3.105E+03  1.576E-29  1.298E-18
3.076E+03  1.636E-29  1.335E-18
3.048E+03  1.698E-29  1.373E-18
3.020E+03  1.762E-29  1.412E-18
2.992E+03  1.829E-29  1.452E-18
2.965E+03  1.899E-29  1.493E-18
2.938E+03  1.971E-29  1.536E-18
2.911E+03  2.046E-29  1.579E-18
2.884E+03  2.123E-29  1.624E-18
2.858E+03  2.204E-29  1.670E-18
2.831E+03  2.288E-29  1.718E-18
2.805E+03  2.375E-29  1.767E-18
2.780E+03  2.465E-29  1.817E-18
2.754E+03  2.559E-29  1.869E-18
2.729E+03  2.656E-29  1.923E-18
2.704E+03  2.757E-29  1.978E-18
2.679E+03  2.862E-29  2.034E-18
2.655E+03  2.971E-29  2.092E-18
2.630E+03  3.085E-29  2.152E-18
2.606E+03  3.202E-29  2.214E-18
2.582E+03  3.325E-29  2.277E-18
2.559E+03  3.452E-29  2.343E-18
2.535E+03  3.584E-29  2.410E-18
2.512E+03  3.720E-29  2.479E-18
2.489E+03  3.863E-29  2.550E-18
2.466E+03  4.010E-29  2.623E-18
2.443E+03  4.164E-29  2.699E-18
2.421E+03  4.323E-29  2.776E-18
2.399E+03  4.489E-29  2.856E-18
2.377E+03  4.660E-29  2.938E-18
2.355E+03  4.839E-29  3.023E-18
2.333E+03  5.024E-29  3.110E-18
2.312E+03  5.217E-29  3.199E-18
2.291E+03  5.417E-29  3.292E-18
2.270E+03  5.624E-29  3.386E-18
2.249E+03  5.840E-29  3.484E-18
2.228E+03  6.064E-29  3.584E-18
2.208E+03  6.297E-29  3.688E-18
2.188E+03  6.538E-29  3.794E-18
2.168E+03  6.789E-29  3.904E-18
2.148E+03  7.050E-29  4.016E-18
2.128E+03  7.320E-29  4.132E-18
2.109E+03  7.601E-29  4.252E-18
2.089E+03  7.893E-29  4.374E-18
2.070E+03  8.196E-29  4.501E-18
2.051E+03  8.511E-29  4.631E-18
2.032E+03  8.838E-29  4.764E-18
2.014E+03  9.177E-29  4.902E-18
1.995E+03  9.530E-29  5.044E-18
1.977E+03  9.895E-29  5.189E-18
1.959E+03  1.028E-28  5.339E-18
1.941E+03  1.067E-28  5.493E-18
1.923E+03  1.108E-28  5.652E-18
1.905E+03  1.150E-28  5.815E-18
1.888E+03  1.195E-28  5.983E-18
1.871E+03  1.241E-28  6.156E-18
1.854E+03  1.288E-28  6.334E-18
1.837E+03  1.338E-28  6.516E-18
1.820E+03  1.389E-28  6.705E-18
1.803E+03  1.442E-28  6.898E-18
1.786E+03  1.498E-28  7.098E-18
1.770E+03  1.555E-28  7.303E-18
1.754E+03  1.615E-28  7.513E-18
1.738E+03  1.677E-28  7.730E-18
1.722E+03  1.741E-28  7.954E-18
1.706E+03  1.808E-28  8.183E-18
1.690E+03  1.878E-28  8.419E-18
1.675E+03  1.950E-28  8.662E-18
1.660E+03  2.025E-28  8.912E-18
1.644E+03  2.102E-28  9.169E-18
1.629E+03  2.183E-28  9.434E-18
1.614E+03  2.267E-28  9.706E-18
1.600E+03  2.353E-28  9.985E-18
1.585E+03  2.444E-28  1.027E-17
1.570E+03  2.537E-28  1.057E-17
1.556E+03  2.634E-28  1.087E-17
1.542E+03  2.735E-28  1.119E-17
1.528E+03  2.840E-28  1.151E-17
1.514E+03  2.949E-28  1.184E-17
1.500E+03  3.062E-28  1.218E-17
1.486E+03  3.179E-28  1.253E-17
1.472E+03  3.300E-28  1.289E-17
1.459E+03  3.427E-28  1.326E-17
1.445E+03  3.558E-28  1.364E-17
1.432E+03  3.694E-28  1.403E-17
1.419E+03  3.835E-28  1.444E-17
1.406E+03  3.981E-28  1.485E-17
1.393E+03  4.133E-28  1.528E-17
1.380E+03  4.291E-28  1.571E-17
1.368E+03  4.455E-28  1.616E-17
1.355E+03  4.625E-28  1.663E-17
1.343E+03  4.801E-28  1.710E-17
1.330E+03  4.984E-28  1.759E-17
1.318E+03  5.174E-28  1.809E-17
1.306E+03  5.371E-28  1.861E-17
1.294E+03  5.575E-28  1.914E-17
1.282E+03  5.787E-28  1.969E-17
1.271E+03  6.007E-28  2.025E-17
1.259E+03  6.236E-28  2.082E-17
1.247E+03  6.472E-28  2.142E-17
1.236E+03  6.718E-28  2.202E-17
1.225E+03  6.972E-28  2.265E-17
1.213E+03  7.236E-28  2.329E-17
1.202E+03  7.510E-28  2.395E-17
1.191E+03  7.794E-28  2.463E-17
1.180E+03  8.089E-28  2.532E-17
1.169E+03  8.394E-28  2.604E-17
1.159E+03  8.711E-28  2.677E-17
1.148E+03  9.039E-28  2.753E-17
1.138E+03  9.379E-28  2.830E-17
1.127E+03  9.732E-28  2.910E-17
1.117E+03  1.010E-27  2.992E-17
1.107E+03  1.048E-27  3.076E-17
1.096E+03  1.087E-27  3.162E-17
1.086E+03  1.128E-27  3.250E-17
1.076E+03  1.170E-27  3.341E-17
1.067E+03  1.214E-27  3.434E-17
1.057E+03  1.259E-27  3.530E-17
1.047E+03  1.306E-27  3.628E-17
1.038E+03  1.355E-27  3.729E-17
1.028E+03  1.406E-27  3.833E-17
1.019E+03  1.458E-27  3.939E-17
1.009E+03  1.512E-27  4.048E-17
1.000E+03  1.568E-27  4.160E-17
9.908E+02  1.626E-27  4.275E-17
9.817E+02  1.687E-27  4.393E-17
9.727E+02  1.749E-27  4.514E-17
9.638E+02  1.814E-27  4.638E-17
9.550E+02  1.881E-27  4.765E-17
9.462E+02  1.951E-27  4.896E-17
9.376E+02  2.023E-27  5.030E-17
9.290E+02  2.097E-27  5.168E-17
9.204E+02  2.174E-27  5.309E-17
9.120E+02  2.254E-27  5.453E-17
9.036E+02  2.337E-27  5.602E-17
8.954E+02  2.423E-27  5.754E-17
8.872E+02  2.511E-27  5.909E-17
8.790E+02  2.603E-27  6.069E-17
8.710E+02  2.698E-27  6.232E-17
8.630E+02  2.796E-27  6.400E-17
8.551E+02  2.897E-27  6.571E-17
8.472E+02  3.002E-27  6.747E-17
8.395E+02  3.111E-27  6.927E-17
8.318E+02  3.223E-27  7.111E-17
8.241E+02  3.339E-27  7.300E-17
8.166E+02  3.460E-27  7.493E-17
8.091E+02  3.584E-27  7.691E-17
8.017E+02  3.712E-27  7.894E-17
7.943E+02  3.845E-27  8.101E-17
7.870E+02  3.982E-27  8.314E-17
7.798E+02  4.124E-27  8.531E-17
7.727E+02  4.271E-27  8.754E-17
7.656E+02  4.423E-27  8.982E-17
7.586E+02  4.580E-27  9.215E-17
7.516E+02  4.742E-27  9.454E-17
7.447E+02  4.910E-27  9.699E-17
7.379E+02  5.084E-27  9.950E-17
7.311E+02  5.263E-27  1.021E-16
7.244E+02  5.449E-27  1.047E-16
7.178E+02  5.642E-27  1.074E-16
7.112E+02  5.840E-27  1.102E-16
7.047E+02  6.046E-27  1.130E-16
6.982E+02  6.258E-27  1.159E-16
6.918E+02  6.478E-27  1.189E-16
6.855E+02  6.705E-27  1.219E-16
6.792E+02  6.939E-27  1.250E-16
6.730E+02  7.181E-27  1.282E-16
6.668E+02  7.430E-27  1.314E-16
6.607E+02  7.688E-27  1.347E-16
6.546E+02  7.956E-27  1.382E-16
6.486E+02  8.233E-27  1.417E-16
6.427E+02  8.520E-27  1.452E-16
6.368E+02  8.816E-27  1.489E-16
6.310E+02  9.122E-27  1.527E-16
6.252E+02  9.438E-27  1.565E-16
6.194E+02  9.765E-27  1.605E-16
6.138E+02  1.010E-26  1.645E-16
6.081E+02  1.045E-26  1.686E-16
6.026E+02  1.081E-26  1.728E-16
5.970E+02  1.118E-26  1.771E-16
5.916E+02  1.157E-26  1.815E-16
5.861E+02  1.197E-26  1.861E-16
5.808E+02  1.238E-26  1.907E-16
5.754E+02  1.280E-26  1.954E-16
5.702E+02  1.324E-26  2.002E-16
5.649E+02  1.369E-26  2.052E-16
5.598E+02  1.416E-26  2.102E-16
5.546E+02  1.464E-26  2.154E-16
5.495E+02  1.514E-26  2.207E-16
5.445E+02  1.565E-26  2.261E-16
5.395E+02  1.618E-26  2.316E-16
5.346E+02  1.673E-26  2.372E-16
5.297E+02  1.730E-26  2.430E-16
5.248E+02  1.788E-26  2.489E-16
5.200E+02  1.848E-26  2.549E-16
5.152E+02  1.911E-26  2.611E-16
5.105E+02  1.975E-26  2.674E-16
5.058E+02  2.041E-26  2.738E-16
5.012E+02  2.109E-26  2.804E-16
4.966E+02  2.180E-26  2.871E-16
4.920E+02  2.252E-26  2.939E-16
4.875E+02  2.327E-26  3.009E-16
4.831E+02  2.404E-26  3.081E-16
4.786E+02  2.484E-26  3.154E-16
4.742E+02  2.566E-26  3.228E-16
4.699E+02  2.650E-26  3.304E-16
4.656E+02  2.738E-26  3.381E-16
4.613E+02  2.828E-26  3.460E-16
4.571E+02  2.920E-26  3.541E-16
4.529E+02  3.016E-26  3.623E-16
4.487E+02  3.114E-26  3.707E-16
4.446E+02  3.215E-26  3.792E-16
4.406E+02  3.320E-26  3.879E-16
4.365E+02  3.427E-26  3.968E-16
4.325E+02  3.537E-26  4.058E-16
4.285E+02  3.651E-26  4.151E-16
4.246E+02  3.769E-26  4.245E-16
4.207E+02  3.889E-26  4.340E-16
4.169E+02  4.014E-26  4.438E-16
4.130E+02  4.141E-26  4.537E-16
4.093E+02  4.273E-26  4.639E-16
4.055E+02  4.408E-26  4.742E-16
4.018E+02  4.548E-26  4.847E-16
3.981E+02  4.691E-26  4.954E-16
3.945E+02  4.839E-26  5.063E-16
3.908E+02  4.991E-26  5.174E-16
3.873E+02  5.147E-26  5.287E-16
3.837E+02  5.307E-26  5.402E-16
3.802E+02  5.472E-26  5.519E-16
3.767E+02  5.642E-26  5.638E-16
3.733E+02  5.816E-26  5.758E-16
3.698E+02  5.995E-26  5.881E-16
3.664E+02  6.179E-26  6.006E-16
3.631E+02  6.368E-26  6.133E-16
3.597E+02  6.562E-26  6.262E-16
3.565E+02  6.761E-26  6.393E-16
3.532E+02  6.966E-26  6.526E-16
3.499E+02  7.176E-26  6.661E-16
3.467E+02  7.391E-26  6.798E-16
3.436E+02  7.612E-26  6.937E-16
3.404E+02  7.839E-26  7.079E-16
3.373E+02  8.072E-26  7.222E-16
3.342E+02  8.311E-26  7.367E-16
3.311E+02  8.556E-26  7.515E-16
3.281E+02  8.806E-26  7.664E-16
3.251E+02  9.063E-26  7.815E-16
3.221E+02  9.327E-26  7.969E-16
3.192E+02  9.597E-26  8.125E-16
3.162E+02  9.874E-26  8.282E-16
3.133E+02  1.016E-25  8.441E-16
3.105E+02  1.045E-25  8.602E-16
3.076E+02  1.074E-25  8.766E-16
3.048E+02  1.105E-25  8.931E-16
3.020E+02  1.136E-25  9.099E-16
2.992E+02  1.168E-25  9.268E-16
2.965E+02  1.200E-25  9.438E-16
2.938E+02  1.233E-25  9.611E-16
2.911E+02  1.267E-25  9.786E-16
2.884E+02  1.302E-25  9.962E-16
2.858E+02  1.338E-25  1.014E-15
2.831E+02  1.374E-25  1.032E-15
2.805E+02  1.411E-25  1.050E-15
2.780E+02  1.449E-25  1.068E-15
2.754E+02  1.488E-25  1.087E-15
2.729E+02  1.527E-25  1.106E-15
2.704E+02  1.568E-25  1.125E-15
2.679E+02  1.609E-25  1.144E-15
2.655E+02  1.652E-25  1.163E-15
2.630E+02  1.695E-25  1.182E-15
2.606E+02  1.739E-25  1.202E-15
2.582E+02  1.784E-25  1.222E-15
2.559E+02  1.829E-25  1.241E-15
2.535E+02  1.875E-25  1.261E-15
2.512E+02  1.921E-25  1.280E-15
2.489E+02  1.968E-25  1.299E-15
2.466E+02  2.013E-25  1.317E-15
2.443E+02  2.059E-25  1.334E-15
2.421E+02  2.105E-25  1.352E-15
2.399E+02  2.151E-25  1.368E-15
2.377E+02  2.196E-25  1.385E-15
2.355E+02  2.242E-25  1.400E-15
2.333E+02  2.288E-25  1.416E-15
2.312E+02  2.335E-25  1.432E-15
2.291E+02  2.382E-25  1.447E-15
2.270E+02  2.430E-25  1.463E-15
2.249E+02  2.478E-25  1.478E-15
2.228E+02  2.526E-25  1.493E-15
2.208E+02  2.575E-25  1.508E-15
2.188E+02  2.625E-25  1.523E-15
2.168E+02  2.675E-25  1.538E-15
2.148E+02  2.725E-25  1.552E-15
2.128E+02  2.775E-25  1.567E-15
2.109E+02  2.826E-25  1.581E-15
2.089E+02  2.877E-25  1.595E-15
2.070E+02  2.929E-25  1.608E-15
2.051E+02  2.980E-25  1.622E-15
2.032E+02  3.033E-25  1.635E-15
2.014E+02  3.085E-25  1.648E-15
1.995E+02  3.137E-25  1.660E-15
1.977E+02  3.190E-25  1.673E-15
1.959E+02  3.243E-25  1.685E-15
1.941E+02  3.296E-25  1.697E-15
1.923E+02  3.349E-25  1.708E-15
1.905E+02  3.403E-25  1.720E-15
1.888E+02  3.456E-25  1.731E-15
1.871E+02  3.510E-25  1.742E-15
1.854E+02  3.564E-25  1.752E-15
1.837E+02  3.618E-25  1.762E-15
1.820E+02  3.672E-25  1.772E-15
1.803E+02  3.726E-25  1.782E-15
1.786E+02  3.780E-25  1.791E-15
1.770E+02  3.834E-25  1.800E-15
1.754E+02  3.889E-25  1.809E-15
1.738E+02  3.943E-25  1.818E-15
1.722E+02  3.998E-25  1.826E-15
1.706E+02  4.053E-25  1.834E-15
1.690E+02  4.107E-25  1.842E-15
1.675E+02  4.162E-25  1.849E-15
1.660E+02  4.218E-25  1.857E-15
1.644E+02  4.273E-25  1.864E-15
1.629E+02  4.329E-25  1.871E-15
1.614E+02  4.385E-25  1.878E-15
1.600E+02  4.441E-25  1.884E-15
1.585E+02  4.497E-25  1.891E-15
1.570E+02  4.554E-25  1.897E-15
1.556E+02  4.612E-25  1.904E-15
1.542E+02  4.671E-25  1.910E-15
1.528E+02  4.730E-25  1.917E-15
1.514E+02  4.791E-25  1.923E-15
1.500E+02  4.852E-25  1.930E-15
1.486E+02  4.914E-25  1.937E-15
1.472E+02  4.977E-25  1.944E-15
1.459E+02  5.041E-25  1.950E-15
1.445E+02  5.104E-25  1.957E-15
1.432E+02  5.165E-25  1.962E-15
1.419E+02  5.224E-25  1.966E-15
1.406E+02  5.277E-25  1.968E-15
1.393E+02  5.324E-25  1.967E-15
1.380E+02  5.363E-25  1.964E-15
1.368E+02  5.395E-25  1.957E-15
1.355E+02  5.421E-25  1.949E-15
1.343E+02  5.442E-25  1.939E-15
1.330E+02  5.462E-25  1.928E-15
1.318E+02  5.481E-25  1.917E-15
1.306E+02  5.500E-25  1.906E-15
1.294E+02  5.520E-25  1.895E-15
1.282E+02  5.540E-25  1.884E-15
1.271E+02  5.561E-25  1.874E-15
1.259E+02  5.583E-25  1.864E-15
1.247E+02  5.605E-25  1.855E-15
1.236E+02  5.629E-25  1.845E-15
1.225E+02  5.652E-25  1.836E-15
1.213E+02  5.676E-25  1.827E-15
1.202E+02  5.701E-25  1.818E-15
1.191E+02  5.725E-25  1.809E-15
1.180E+02  5.750E-25  1.800E-15
1.169E+02  5.774E-25  1.791E-15
1.159E+02  5.797E-25  1.782E-15
1.148E+02  5.820E-25  1.773E-15
1.138E+02  5.844E-25  1.763E-15
1.127E+02  5.866E-25  1.754E-15
1.117E+02  5.890E-25  1.745E-15
1.107E+02  5.913E-25  1.736E-15
1.096E+02  5.936E-25  1.726E-15
1.086E+02  5.959E-25  1.717E-15
1.076E+02  5.981E-25  1.708E-15
1.067E+02  6.002E-25  1.698E-15
1.057E+02  6.024E-25  1.689E-15
1.047E+02  6.045E-25  1.679E-15
1.038E+02  6.065E-25  1.669E-15
1.028E+02  6.085E-25  1.659E-15
1.019E+02  6.103E-25  1.649E-15
1.009E+02  6.121E-25  1.639E-15
1.000E+02  6.139E-25  1.628E-15
9.908E+01  6.155E-25  1.618E-15
9.817E+01  6.171E-25  1.607E-15
9.727E+01  6.186E-25  1.596E-15
9.638E+01  6.201E-25  1.585E-15
9.550E+01  6.215E-25  1.574E-15
9.462E+01  6.228E-25  1.563E-15
9.376E+01  6.240E-25  1.552E-15
9.290E+01  6.252E-25  1.541E-15
9.204E+01  6.263E-25  1.529E-15
9.120E+01  6.274E-25  1.518E-15
9.036E+01  6.283E-25  1.506E-15
8.954E+01  6.292E-25  1.494E-15
8.872E+01  6.301E-25  1.483E-15
8.790E+01  6.309E-25  1.471E-15
8.710E+01  6.316E-25  1.459E-15
8.630E+01  6.322E-25  1.447E-15
8.551E+01  6.329E-25  1.435E-15
8.472E+01  6.332E-25  1.423E-15
8.395E+01  6.337E-25  1.411E-15
8.318E+01  6.340E-25  1.399E-15
8.241E+01  6.343E-25  1.387E-15
8.166E+01  6.345E-25  1.374E-15
8.091E+01  6.347E-25  1.362E-15
8.017E+01  6.348E-25  1.350E-15
7.943E+01  6.349E-25  1.338E-15
7.870E+01  6.348E-25  1.325E-15
7.798E+01  6.346E-25  1.313E-15
7.727E+01  6.344E-25  1.300E-15
7.656E+01  6.341E-25  1.288E-15
7.586E+01  6.337E-25  1.275E-15
7.516E+01  6.333E-25  1.263E-15
7.447E+01  6.328E-25  1.250E-15
7.379E+01  6.321E-25  1.237E-15
7.311E+01  6.313E-25  1.224E-15
7.244E+01  6.304E-25  1.211E-15
7.178E+01  6.295E-25  1.199E-15
7.112E+01  6.285E-25  1.186E-15
7.047E+01  6.276E-25  1.173E-15
6.982E+01  6.266E-25  1.161E-15
6.918E+01  6.255E-25  1.148E-15
6.855E+01  6.243E-25  1.135E-15
6.792E+01  6.229E-25  1.122E-15
6.730E+01  6.215E-25  1.109E-15
6.668E+01  6.201E-25  1.097E-15
6.607E+01  6.186E-25  1.084E-15
6.546E+01  6.170E-25  1.071E-15
6.486E+01  6.153E-25  1.059E-15
6.427E+01  6.136E-25  1.046E-15
6.368E+01  6.118E-25  1.033E-15
6.310E+01  6.099E-25  1.021E-15
6.252E+01  6.080E-25  1.008E-15
6.194E+01  6.061E-25  9.959E-16
6.138E+01  6.041E-25  9.835E-16
6.081E+01  6.020E-25  9.712E-16
6.026E+01  5.999E-25  9.588E-16
5.970E+01  5.976E-25  9.465E-16
5.916E+01  5.954E-25  9.342E-16
5.861E+01  5.930E-25  9.219E-16
5.808E+01  5.905E-25  9.097E-16
5.754E+01  5.880E-25  8.975E-16
5.702E+01  5.855E-25  8.854E-16
5.649E+01  5.829E-25  8.734E-16
5.598E+01  5.802E-25  8.615E-16
5.546E+01  5.776E-25  8.497E-16
5.495E+01  5.749E-25  8.380E-16
5.445E+01  5.722E-25  8.264E-16
5.395E+01  5.694E-25  8.149E-16
5.346E+01  5.666E-25  8.034E-16
5.297E+01  5.637E-25  7.920E-16
5.248E+01  5.608E-25  7.807E-16
5.200E+01  5.579E-25  7.695E-16
5.152E+01  5.549E-25  7.583E-16
5.105E+01  5.518E-25  7.472E-16
5.058E+01  5.487E-25  7.362E-16
5.012E+01  5.456E-25  7.253E-16
4.966E+01  5.424E-25  7.145E-16
