Dust emission from Draine & Li (2007): ApJ 657, 810-837
================================================================
         6 = grain model
 4.000E-08 4.000E-01 3.750E-05 = a_01 (cm) , sigma_1 , b_C1/0.92
 2.500E-07 4.000E-01 1.250E-05 = a_02 (cm) , sigma_2 , b_C2/0.92
 1.500E-01 1.000E+04 2.000E+00 = Umin , Umax, beta (dN/dU propto U^{-beta})
 1.666E+00 = <U> 
     mmp83 = radfield
 7.514E-24 = power/H (erg s-1)
 band   nu*P_nu(band) j_nu(band)
 (um)   (erg s-1 H-1)(Jy cm2 sr-1 H-1)
1.270E+00  2.536E-26  8.542E-19 COBE-DIRBE
2.220E+00  3.236E-26  1.905E-18 COBE-DIRBE
3.530E+00  2.121E-25  1.986E-17 COBE-DIRBE
4.880E+00  9.882E-26  1.279E-17 COBE-DIRBE
1.229E+01  9.215E-25  3.004E-16 COBE-DIRBE
2.079E+01  9.602E-25  5.296E-16 COBE-DIRBE
5.599E+01  3.175E-24  4.715E-15 COBE-DIRBE
9.770E+01  2.682E-24  6.952E-15 COBE-DIRBE
1.479E+02  2.029E-24  7.960E-15 COBE-DIRBE
2.479E+02  7.956E-25  5.231E-15 COBE-DIRBE
1.200E+01  9.686E-25  3.083E-16 IRAS
2.500E+01  1.161E-24  7.700E-16 IRAS
6.000E+01  3.131E-24  4.983E-15 IRAS
1.000E+02  2.652E-24  7.035E-15 IRAS
3.550E+00  2.467E-25  2.323E-17 SST-IRAC
4.493E+00  6.912E-26  8.237E-18 SST-IRAC
5.731E+00  5.898E-25  8.966E-17 SST-IRAC
7.872E+00  1.401E-24  2.925E-16 SST-IRAC
2.368E+01  1.022E-24  6.423E-16 SST-MIPS
7.142E+01  2.745E-24  5.200E-15 SST-MIPS
1.559E+02  1.821E-24  7.531E-15 SST-MIPS
1.600E+01  7.863E-25  3.337E-16 SST-IRSPU
2.200E+01  1.006E-24  5.870E-16 SST-IRSPU











lambda    nu*dP/dnu     j_nu
 (um)   (erg s-1 H-1)(Jy cm2 sr-1 H-1)
1.000E+04  4.588E-31  1.217E-19
9.908E+03  4.755E-31  1.250E-19
9.817E+03  4.929E-31  1.284E-19
9.727E+03  5.108E-31  1.318E-19
9.638E+03  5.294E-31  1.354E-19
9.550E+03  5.487E-31  1.390E-19
9.462E+03  5.687E-31  1.427E-19
9.376E+03  5.894E-31  1.466E-19
9.290E+03  6.109E-31  1.505E-19
9.204E+03  6.332E-31  1.546E-19
9.120E+03  6.562E-31  1.588E-19
9.036E+03  6.801E-31  1.630E-19
8.954E+03  7.048E-31  1.674E-19
8.872E+03  7.304E-31  1.719E-19
8.790E+03  7.569E-31  1.765E-19
8.710E+03  7.843E-31  1.812E-19
8.630E+03  8.128E-31  1.861E-19
8.551E+03  8.423E-31  1.910E-19
8.472E+03  8.729E-31  1.962E-19
8.395E+03  9.046E-31  2.014E-19
8.318E+03  9.375E-31  2.068E-19
8.241E+03  9.717E-31  2.124E-19
8.166E+03  1.007E-30  2.181E-19
8.091E+03  1.044E-30  2.240E-19
8.017E+03  1.082E-30  2.300E-19
7.943E+03  1.121E-30  2.363E-19
7.870E+03  1.162E-30  2.426E-19
7.798E+03  1.205E-30  2.492E-19
7.727E+03  1.249E-30  2.559E-19
7.656E+03  1.294E-30  2.629E-19
7.586E+03  1.342E-30  2.700E-19
7.516E+03  1.391E-30  2.773E-19
7.447E+03  1.442E-30  2.848E-19
7.379E+03  1.495E-30  2.925E-19
7.311E+03  1.549E-30  3.005E-19
7.244E+03  1.606E-30  3.087E-19
7.178E+03  1.665E-30  3.171E-19
7.112E+03  1.726E-30  3.257E-19
7.047E+03  1.790E-30  3.346E-19
6.982E+03  1.856E-30  3.437E-19
6.918E+03  1.924E-30  3.530E-19
6.855E+03  1.994E-30  3.626E-19
6.792E+03  2.068E-30  3.725E-19
6.730E+03  2.144E-30  3.827E-19
6.668E+03  2.223E-30  3.931E-19
6.607E+03  2.304E-30  4.038E-19
6.546E+03  2.389E-30  4.149E-19
6.486E+03  2.477E-30  4.262E-19
6.427E+03  2.569E-30  4.379E-19
6.368E+03  2.664E-30  4.499E-19
6.310E+03  2.762E-30  4.623E-19
6.252E+03  2.864E-30  4.749E-19
6.194E+03  2.970E-30  4.880E-19
6.138E+03  3.080E-30  5.014E-19
6.081E+03  3.194E-30  5.152E-19
6.026E+03  3.312E-30  5.294E-19
5.970E+03  3.435E-30  5.440E-19
5.916E+03  3.562E-30  5.590E-19
5.861E+03  3.694E-30  5.744E-19
5.808E+03  3.832E-30  5.903E-19
5.754E+03  3.974E-30  6.066E-19
5.702E+03  4.122E-30  6.234E-19
5.649E+03  4.275E-30  6.406E-19
5.598E+03  4.434E-30  6.584E-19
5.546E+03  4.599E-30  6.766E-19
5.495E+03  4.770E-30  6.954E-19
5.445E+03  4.948E-30  7.147E-19
5.395E+03  5.133E-30  7.345E-19
5.346E+03  5.324E-30  7.550E-19
5.297E+03  5.523E-30  7.760E-19
5.248E+03  5.729E-30  7.976E-19
5.200E+03  5.943E-30  8.198E-19
5.152E+03  6.165E-30  8.426E-19
5.105E+03  6.396E-30  8.661E-19
5.058E+03  6.635E-30  8.903E-19
5.012E+03  6.884E-30  9.151E-19
4.966E+03  7.141E-30  9.407E-19
4.920E+03  7.409E-30  9.670E-19
4.875E+03  7.686E-30  9.940E-19
4.831E+03  7.974E-30  1.022E-18
4.786E+03  8.274E-30  1.050E-18
4.742E+03  8.584E-30  1.080E-18
4.699E+03  8.907E-30  1.110E-18
4.656E+03  9.241E-30  1.141E-18
4.613E+03  9.589E-30  1.173E-18
4.571E+03  9.950E-30  1.206E-18
4.529E+03  1.032E-29  1.240E-18
4.487E+03  1.071E-29  1.275E-18
4.446E+03  1.112E-29  1.311E-18
4.406E+03  1.154E-29  1.348E-18
4.365E+03  1.197E-29  1.386E-18
4.325E+03  1.242E-29  1.425E-18
4.285E+03  1.289E-29  1.466E-18
4.246E+03  1.338E-29  1.507E-18
4.207E+03  1.389E-29  1.550E-18
4.169E+03  1.441E-29  1.594E-18
4.130E+03  1.496E-29  1.639E-18
4.093E+03  1.552E-29  1.685E-18
4.055E+03  1.611E-29  1.733E-18
4.018E+03  1.672E-29  1.782E-18
3.981E+03  1.736E-29  1.833E-18
3.945E+03  1.801E-29  1.885E-18
3.908E+03  1.870E-29  1.938E-18
3.873E+03  1.941E-29  1.993E-18
3.837E+03  2.014E-29  2.050E-18
3.802E+03  2.091E-29  2.109E-18
3.767E+03  2.170E-29  2.169E-18
3.733E+03  2.253E-29  2.231E-18
3.698E+03  2.339E-29  2.294E-18
3.664E+03  2.428E-29  2.360E-18
3.631E+03  2.520E-29  2.427E-18
3.597E+03  2.616E-29  2.497E-18
3.565E+03  2.716E-29  2.568E-18
3.532E+03  2.820E-29  2.642E-18
3.499E+03  2.928E-29  2.718E-18
3.467E+03  3.040E-29  2.796E-18
3.436E+03  3.156E-29  2.876E-18
3.404E+03  3.277E-29  2.959E-18
3.373E+03  3.402E-29  3.044E-18
3.342E+03  3.532E-29  3.131E-18
3.311E+03  3.668E-29  3.222E-18
3.281E+03  3.809E-29  3.315E-18
3.251E+03  3.955E-29  3.410E-18
3.221E+03  4.107E-29  3.509E-18
3.192E+03  4.265E-29  3.610E-18
3.162E+03  4.428E-29  3.715E-18
3.133E+03  4.599E-29  3.822E-18
3.105E+03  4.776E-29  3.933E-18
3.076E+03  4.960E-29  4.047E-18
3.048E+03  5.151E-29  4.164E-18
3.020E+03  5.349E-29  4.285E-18
2.992E+03  5.555E-29  4.409E-18
2.965E+03  5.769E-29  4.537E-18
2.938E+03  5.991E-29  4.668E-18
2.911E+03  6.222E-29  4.804E-18
2.884E+03  6.461E-29  4.943E-18
2.858E+03  6.710E-29  5.087E-18
2.831E+03  6.969E-29  5.234E-18
2.805E+03  7.238E-29  5.386E-18
2.780E+03  7.518E-29  5.543E-18
2.754E+03  7.808E-29  5.704E-18
2.729E+03  8.110E-29  5.871E-18
2.704E+03  8.424E-29  6.042E-18
2.679E+03  8.749E-29  6.218E-18
2.655E+03  9.088E-29  6.399E-18
2.630E+03  9.440E-29  6.586E-18
2.606E+03  9.806E-29  6.779E-18
2.582E+03  1.019E-28  6.977E-18
2.559E+03  1.058E-28  7.181E-18
2.535E+03  1.099E-28  7.392E-18
2.512E+03  1.142E-28  7.608E-18
2.489E+03  1.186E-28  7.831E-18
2.466E+03  1.232E-28  8.061E-18
2.443E+03  1.280E-28  8.297E-18
2.421E+03  1.330E-28  8.541E-18
2.399E+03  1.382E-28  8.792E-18
2.377E+03  1.435E-28  9.050E-18
2.355E+03  1.491E-28  9.317E-18
2.333E+03  1.549E-28  9.591E-18
2.312E+03  1.610E-28  9.873E-18
2.291E+03  1.673E-28  1.016E-17
2.270E+03  1.738E-28  1.046E-17
2.249E+03  1.806E-28  1.077E-17
2.228E+03  1.876E-28  1.109E-17
2.208E+03  1.949E-28  1.142E-17
2.188E+03  2.025E-28  1.175E-17
2.168E+03  2.104E-28  1.210E-17
2.148E+03  2.186E-28  1.246E-17
2.128E+03  2.272E-28  1.282E-17
2.109E+03  2.361E-28  1.320E-17
2.089E+03  2.453E-28  1.359E-17
2.070E+03  2.549E-28  1.400E-17
2.051E+03  2.648E-28  1.441E-17
2.032E+03  2.752E-28  1.484E-17
2.014E+03  2.859E-28  1.527E-17
1.995E+03  2.971E-28  1.573E-17
1.977E+03  3.087E-28  1.619E-17
1.959E+03  3.208E-28  1.667E-17
1.941E+03  3.334E-28  1.716E-17
1.923E+03  3.464E-28  1.767E-17
1.905E+03  3.599E-28  1.819E-17
1.888E+03  3.740E-28  1.873E-17
1.871E+03  3.886E-28  1.929E-17
1.854E+03  4.039E-28  1.986E-17
1.837E+03  4.197E-28  2.044E-17
1.820E+03  4.361E-28  2.105E-17
1.803E+03  4.531E-28  2.167E-17
1.786E+03  4.709E-28  2.231E-17
1.770E+03  4.893E-28  2.297E-17
1.754E+03  5.085E-28  2.365E-17
1.738E+03  5.284E-28  2.436E-17
1.722E+03  5.490E-28  2.508E-17
1.706E+03  5.705E-28  2.582E-17
1.690E+03  5.928E-28  2.658E-17
1.675E+03  6.160E-28  2.737E-17
1.660E+03  6.401E-28  2.818E-17
1.644E+03  6.652E-28  2.901E-17
1.629E+03  6.912E-28  2.987E-17
1.614E+03  7.182E-28  3.076E-17
1.600E+03  7.463E-28  3.167E-17
1.585E+03  7.755E-28  3.260E-17
1.570E+03  8.058E-28  3.357E-17
1.556E+03  8.373E-28  3.456E-17
1.542E+03  8.700E-28  3.558E-17
1.528E+03  9.040E-28  3.663E-17
1.514E+03  9.393E-28  3.771E-17
1.500E+03  9.759E-28  3.882E-17
1.486E+03  1.014E-27  3.997E-17
1.472E+03  1.054E-27  4.115E-17
1.459E+03  1.095E-27  4.236E-17
1.445E+03  1.138E-27  4.361E-17
1.432E+03  1.182E-27  4.490E-17
1.419E+03  1.228E-27  4.622E-17
1.406E+03  1.276E-27  4.759E-17
1.393E+03  1.326E-27  4.899E-17
1.380E+03  1.377E-27  5.043E-17
1.368E+03  1.431E-27  5.192E-17
1.355E+03  1.487E-27  5.344E-17
1.343E+03  1.545E-27  5.501E-17
1.330E+03  1.605E-27  5.663E-17
1.318E+03  1.667E-27  5.829E-17
1.306E+03  1.732E-27  6.000E-17
1.294E+03  1.799E-27  6.176E-17
1.282E+03  1.869E-27  6.357E-17
1.271E+03  1.942E-27  6.544E-17
1.259E+03  2.017E-27  6.735E-17
1.247E+03  2.095E-27  6.932E-17
1.236E+03  2.176E-27  7.135E-17
1.225E+03  2.260E-27  7.343E-17
1.213E+03  2.348E-27  7.557E-17
1.202E+03  2.439E-27  7.777E-17
1.191E+03  2.533E-27  8.004E-17
1.180E+03  2.631E-27  8.237E-17
1.169E+03  2.732E-27  8.476E-17
1.159E+03  2.838E-27  8.722E-17
1.148E+03  2.947E-27  8.975E-17
1.138E+03  3.060E-27  9.235E-17
1.127E+03  3.178E-27  9.503E-17
1.117E+03  3.300E-27  9.777E-17
1.107E+03  3.427E-27  1.006E-16
1.096E+03  3.559E-27  1.035E-16
1.086E+03  3.695E-27  1.065E-16
1.076E+03  3.837E-27  1.096E-16
1.067E+03  3.983E-27  1.127E-16
1.057E+03  4.136E-27  1.159E-16
1.047E+03  4.294E-27  1.193E-16
1.038E+03  4.458E-27  1.227E-16
1.028E+03  4.627E-27  1.262E-16
1.019E+03  4.804E-27  1.298E-16
1.009E+03  4.986E-27  1.335E-16
1.000E+03  5.176E-27  1.373E-16
9.908E+02  5.373E-27  1.412E-16
9.817E+02  5.577E-27  1.452E-16
9.727E+02  5.788E-27  1.494E-16
9.638E+02  6.008E-27  1.536E-16
9.550E+02  6.235E-27  1.579E-16
9.462E+02  6.471E-27  1.624E-16
9.376E+02  6.715E-27  1.670E-16
9.290E+02  6.969E-27  1.717E-16
9.204E+02  7.231E-27  1.766E-16
9.120E+02  7.503E-27  1.815E-16
9.036E+02  7.785E-27  1.866E-16
8.954E+02  8.077E-27  1.918E-16
8.872E+02  8.380E-27  1.972E-16
8.790E+02  8.693E-27  2.027E-16
8.710E+02  9.018E-27  2.083E-16
8.630E+02  9.354E-27  2.141E-16
8.551E+02  9.702E-27  2.201E-16
8.472E+02  1.006E-26  2.261E-16
8.395E+02  1.044E-26  2.324E-16
8.318E+02  1.082E-26  2.388E-16
8.241E+02  1.122E-26  2.454E-16
8.166E+02  1.164E-26  2.521E-16
8.091E+02  1.207E-26  2.590E-16
8.017E+02  1.251E-26  2.660E-16
7.943E+02  1.297E-26  2.733E-16
7.870E+02  1.345E-26  2.807E-16
7.798E+02  1.394E-26  2.883E-16
7.727E+02  1.445E-26  2.961E-16
7.656E+02  1.498E-26  3.041E-16
7.586E+02  1.552E-26  3.123E-16
7.516E+02  1.609E-26  3.207E-16
7.447E+02  1.667E-26  3.293E-16
7.379E+02  1.728E-26  3.382E-16
7.311E+02  1.791E-26  3.473E-16
7.244E+02  1.855E-26  3.566E-16
7.178E+02  1.923E-26  3.661E-16
7.112E+02  1.992E-26  3.759E-16
7.047E+02  2.064E-26  3.859E-16
6.982E+02  2.139E-26  3.961E-16
6.918E+02  2.216E-26  4.067E-16
6.855E+02  2.296E-26  4.174E-16
6.792E+02  2.378E-26  4.285E-16
6.730E+02  2.463E-26  4.398E-16
6.668E+02  2.551E-26  4.513E-16
6.607E+02  2.643E-26  4.631E-16
6.546E+02  2.737E-26  4.753E-16
6.486E+02  2.835E-26  4.878E-16
6.427E+02  2.936E-26  5.006E-16
6.368E+02  3.041E-26  5.137E-16
6.310E+02  3.150E-26  5.271E-16
6.252E+02  3.262E-26  5.409E-16
6.194E+02  3.378E-26  5.550E-16
6.138E+02  3.498E-26  5.694E-16
6.081E+02  3.622E-26  5.842E-16
6.026E+02  3.750E-26  5.994E-16
5.970E+02  3.882E-26  6.149E-16
5.916E+02  4.020E-26  6.307E-16
5.861E+02  4.161E-26  6.470E-16
5.808E+02  4.308E-26  6.636E-16
5.754E+02  4.459E-26  6.807E-16
5.702E+02  4.616E-26  6.981E-16
5.649E+02  4.778E-26  7.159E-16
5.598E+02  4.945E-26  7.342E-16
5.546E+02  5.118E-26  7.529E-16
5.495E+02  5.296E-26  7.720E-16
5.445E+02  5.481E-26  7.916E-16
5.395E+02  5.671E-26  8.116E-16
5.346E+02  5.868E-26  8.321E-16
5.297E+02  6.072E-26  8.530E-16
5.248E+02  6.282E-26  8.745E-16
5.200E+02  6.499E-26  8.964E-16
5.152E+02  6.723E-26  9.188E-16
5.105E+02  6.954E-26  9.417E-16
5.058E+02  7.193E-26  9.651E-16
5.012E+02  7.440E-26  9.891E-16
4.966E+02  7.694E-26  1.014E-15
4.920E+02  7.957E-26  1.039E-15
4.875E+02  8.228E-26  1.064E-15
4.831E+02  8.508E-26  1.090E-15
4.786E+02  8.797E-26  1.117E-15
4.742E+02  9.095E-26  1.144E-15
4.699E+02  9.402E-26  1.172E-15
4.656E+02  9.719E-26  1.200E-15
4.613E+02  1.005E-25  1.229E-15
4.571E+02  1.038E-25  1.259E-15
4.529E+02  1.073E-25  1.289E-15
4.487E+02  1.109E-25  1.320E-15
4.446E+02  1.146E-25  1.351E-15
4.406E+02  1.184E-25  1.383E-15
4.365E+02  1.223E-25  1.416E-15
4.325E+02  1.263E-25  1.449E-15
4.285E+02  1.305E-25  1.484E-15
4.246E+02  1.348E-25  1.518E-15
4.207E+02  1.392E-25  1.554E-15
4.169E+02  1.438E-25  1.590E-15
4.130E+02  1.485E-25  1.627E-15
4.093E+02  1.533E-25  1.664E-15
4.055E+02  1.583E-25  1.702E-15
4.018E+02  1.634E-25  1.741E-15
3.981E+02  1.686E-25  1.781E-15
3.945E+02  1.741E-25  1.821E-15
3.908E+02  1.797E-25  1.863E-15
3.873E+02  1.854E-25  1.905E-15
3.837E+02  1.913E-25  1.947E-15
3.802E+02  1.974E-25  1.991E-15
3.767E+02  2.036E-25  2.035E-15
3.733E+02  2.101E-25  2.080E-15
3.698E+02  2.167E-25  2.126E-15
3.664E+02  2.235E-25  2.172E-15
3.631E+02  2.305E-25  2.220E-15
3.597E+02  2.376E-25  2.268E-15
3.565E+02  2.450E-25  2.317E-15
3.532E+02  2.526E-25  2.366E-15
3.499E+02  2.604E-25  2.417E-15
3.467E+02  2.684E-25  2.468E-15
3.436E+02  2.766E-25  2.520E-15
3.404E+02  2.850E-25  2.573E-15
3.373E+02  2.936E-25  2.627E-15
3.342E+02  3.025E-25  2.682E-15
3.311E+02  3.116E-25  2.737E-15
3.281E+02  3.209E-25  2.793E-15
3.251E+02  3.305E-25  2.850E-15
3.221E+02  3.403E-25  2.908E-15
3.192E+02  3.504E-25  2.966E-15
3.162E+02  3.607E-25  3.026E-15
3.133E+02  3.713E-25  3.086E-15
3.105E+02  3.821E-25  3.147E-15
3.076E+02  3.932E-25  3.208E-15
3.048E+02  4.046E-25  3.271E-15
3.020E+02  4.162E-25  3.334E-15
2.992E+02  4.281E-25  3.398E-15
2.965E+02  4.403E-25  3.462E-15
2.938E+02  4.527E-25  3.528E-15
2.911E+02  4.655E-25  3.594E-15
2.884E+02  4.785E-25  3.661E-15
2.858E+02  4.919E-25  3.728E-15
2.831E+02  5.055E-25  3.797E-15
2.805E+02  5.195E-25  3.866E-15
2.780E+02  5.337E-25  3.935E-15
2.754E+02  5.483E-25  4.006E-15
2.729E+02  5.632E-25  4.077E-15
2.704E+02  5.785E-25  4.149E-15
2.679E+02  5.941E-25  4.222E-15
2.655E+02  6.100E-25  4.295E-15
2.630E+02  6.262E-25  4.369E-15
2.606E+02  6.428E-25  4.444E-15
2.582E+02  6.598E-25  4.519E-15
2.559E+02  6.770E-25  4.594E-15
2.535E+02  6.944E-25  4.669E-15
2.512E+02  7.120E-25  4.744E-15
2.489E+02  7.297E-25  4.817E-15
2.466E+02  7.473E-25  4.888E-15
2.443E+02  7.651E-25  4.959E-15
2.421E+02  7.831E-25  5.029E-15
2.399E+02  8.011E-25  5.098E-15
2.377E+02  8.192E-25  5.165E-15
2.355E+02  8.374E-25  5.231E-15
2.333E+02  8.559E-25  5.298E-15
2.312E+02  8.746E-25  5.364E-15
2.291E+02  8.936E-25  5.430E-15
2.270E+02  9.129E-25  5.496E-15
2.249E+02  9.323E-25  5.562E-15
2.228E+02  9.520E-25  5.628E-15
2.208E+02  9.720E-25  5.693E-15
2.188E+02  9.922E-25  5.758E-15
2.168E+02  1.013E-24  5.823E-15
2.148E+02  1.033E-24  5.887E-15
2.128E+02  1.054E-24  5.951E-15
2.109E+02  1.075E-24  6.014E-15
2.089E+02  1.097E-24  6.077E-15
2.070E+02  1.118E-24  6.139E-15
2.051E+02  1.140E-24  6.201E-15
2.032E+02  1.162E-24  6.262E-15
2.014E+02  1.184E-24  6.323E-15
1.995E+02  1.206E-24  6.383E-15
1.977E+02  1.229E-24  6.443E-15
1.959E+02  1.251E-24  6.502E-15
1.941E+02  1.274E-24  6.560E-15
1.923E+02  1.297E-24  6.617E-15
1.905E+02  1.321E-24  6.674E-15
1.888E+02  1.344E-24  6.731E-15
1.871E+02  1.368E-24  6.787E-15
1.854E+02  1.392E-24  6.842E-15
1.837E+02  1.416E-24  6.896E-15
1.820E+02  1.440E-24  6.950E-15
1.803E+02  1.464E-24  7.003E-15
1.786E+02  1.489E-24  7.056E-15
1.770E+02  1.514E-24  7.108E-15
1.754E+02  1.539E-24  7.160E-15
1.738E+02  1.564E-24  7.211E-15
1.722E+02  1.590E-24  7.262E-15
1.706E+02  1.616E-24  7.312E-15
1.690E+02  1.642E-24  7.361E-15
1.675E+02  1.668E-24  7.411E-15
1.660E+02  1.695E-24  7.461E-15
1.644E+02  1.722E-24  7.510E-15
1.629E+02  1.749E-24  7.560E-15
1.614E+02  1.777E-24  7.610E-15
1.600E+02  1.805E-24  7.659E-15
1.585E+02  1.834E-24  7.709E-15
1.570E+02  1.863E-24  7.759E-15
1.556E+02  1.892E-24  7.811E-15
1.542E+02  1.923E-24  7.863E-15
1.528E+02  1.953E-24  7.915E-15
1.514E+02  1.985E-24  7.968E-15
1.500E+02  2.016E-24  8.022E-15
1.486E+02  2.048E-24  8.074E-15
1.472E+02  2.081E-24  8.126E-15
1.459E+02  2.113E-24  8.175E-15
1.445E+02  2.144E-24  8.221E-15
1.432E+02  2.174E-24  8.260E-15
1.419E+02  2.202E-24  8.289E-15
1.406E+02  2.227E-24  8.307E-15
1.393E+02  2.249E-24  8.311E-15
1.380E+02  2.267E-24  8.301E-15
1.368E+02  2.282E-24  8.277E-15
1.355E+02  2.293E-24  8.242E-15
1.343E+02  2.302E-24  8.199E-15
1.330E+02  2.310E-24  8.151E-15
1.318E+02  2.317E-24  8.102E-15
1.306E+02  2.324E-24  8.052E-15
1.294E+02  2.331E-24  8.003E-15
1.282E+02  2.339E-24  7.956E-15
1.271E+02  2.347E-24  7.909E-15
1.259E+02  2.355E-24  7.866E-15
1.247E+02  2.365E-24  7.824E-15
1.236E+02  2.374E-24  7.784E-15
1.225E+02  2.385E-24  7.746E-15
1.213E+02  2.396E-24  7.710E-15
1.202E+02  2.407E-24  7.676E-15
1.191E+02  2.418E-24  7.642E-15
1.180E+02  2.430E-24  7.608E-15
1.169E+02  2.442E-24  7.576E-15
1.159E+02  2.454E-24  7.542E-15
1.148E+02  2.466E-24  7.510E-15
1.138E+02  2.478E-24  7.479E-15
1.127E+02  2.491E-24  7.447E-15
1.117E+02  2.503E-24  7.417E-15
1.107E+02  2.516E-24  7.387E-15
1.096E+02  2.529E-24  7.357E-15
1.086E+02  2.542E-24  7.327E-15
1.076E+02  2.555E-24  7.297E-15
1.067E+02  2.568E-24  7.267E-15
1.057E+02  2.581E-24  7.236E-15
1.047E+02  2.594E-24  7.206E-15
1.038E+02  2.607E-24  7.176E-15
1.028E+02  2.620E-24  7.144E-15
1.019E+02  2.632E-24  7.112E-15
1.009E+02  2.645E-24  7.080E-15
1.000E+02  2.657E-24  7.048E-15
9.908E+01  2.668E-24  7.013E-15
9.817E+01  2.680E-24  6.980E-15
9.727E+01  2.692E-24  6.946E-15
9.638E+01  2.704E-24  6.912E-15
9.550E+01  2.715E-24  6.877E-15
9.462E+01  2.726E-24  6.842E-15
9.376E+01  2.737E-24  6.807E-15
9.290E+01  2.748E-24  6.771E-15
9.204E+01  2.758E-24  6.734E-15
9.120E+01  2.768E-24  6.698E-15
9.036E+01  2.779E-24  6.660E-15
8.954E+01  2.789E-24  6.623E-15
8.872E+01  2.799E-24  6.586E-15
8.790E+01  2.808E-24  6.548E-15
8.710E+01  2.818E-24  6.510E-15
8.630E+01  2.827E-24  6.472E-15
8.551E+01  2.837E-24  6.435E-15
8.472E+01  2.845E-24  6.394E-15
8.395E+01  2.854E-24  6.356E-15
8.318E+01  2.864E-24  6.318E-15
8.241E+01  2.872E-24  6.279E-15
8.166E+01  2.881E-24  6.240E-15
8.091E+01  2.890E-24  6.202E-15
8.017E+01  2.898E-24  6.163E-15
7.943E+01  2.907E-24  6.125E-15
7.870E+01  2.915E-24  6.086E-15
7.798E+01  2.923E-24  6.047E-15
7.727E+01  2.931E-24  6.007E-15
7.656E+01  2.939E-24  5.968E-15
7.586E+01  2.947E-24  5.929E-15
7.516E+01  2.954E-24  5.890E-15
7.447E+01  2.962E-24  5.851E-15
7.379E+01  2.968E-24  5.810E-15
7.311E+01  2.976E-24  5.771E-15
7.244E+01  2.982E-24  5.730E-15
7.178E+01  2.989E-24  5.690E-15
7.112E+01  2.995E-24  5.651E-15
7.047E+01  3.002E-24  5.612E-15
6.982E+01  3.009E-24  5.573E-15
6.918E+01  3.016E-24  5.535E-15
6.855E+01  3.023E-24  5.496E-15
6.792E+01  3.029E-24  5.457E-15
6.730E+01  3.035E-24  5.419E-15
6.668E+01  3.042E-24  5.381E-15
6.607E+01  3.048E-24  5.342E-15
6.546E+01  3.054E-24  5.304E-15
6.486E+01  3.061E-24  5.266E-15
6.427E+01  3.067E-24  5.229E-15
6.368E+01  3.073E-24  5.191E-15
6.310E+01  3.079E-24  5.154E-15
6.252E+01  3.086E-24  5.117E-15
6.194E+01  3.092E-24  5.081E-15
6.138E+01  3.099E-24  5.045E-15
6.081E+01  3.105E-24  5.009E-15
6.026E+01  3.111E-24  4.973E-15
5.970E+01  3.117E-24  4.937E-15
5.916E+01  3.124E-24  4.901E-15
5.861E+01  3.130E-24  4.866E-15
5.808E+01  3.136E-24  4.831E-15
5.754E+01  3.142E-24  4.796E-15
5.702E+01  3.148E-24  4.762E-15
5.649E+01  3.155E-24  4.728E-15
5.598E+01  3.161E-24  4.694E-15
5.546E+01  3.168E-24  4.661E-15
5.495E+01  3.175E-24  4.628E-15
5.445E+01  3.182E-24  4.595E-15
5.395E+01  3.189E-24  4.563E-15
5.346E+01  3.196E-24  4.531E-15
5.297E+01  3.203E-24  4.500E-15
5.248E+01  3.210E-24  4.469E-15
5.200E+01  3.217E-24  4.437E-15
5.152E+01  3.225E-24  4.407E-15
5.105E+01  3.232E-24  4.376E-15
5.058E+01  3.239E-24  4.346E-15
5.012E+01  3.247E-24  4.316E-15
4.966E+01  3.254E-24  4.287E-15
