Dust emission from Draine & Li (2007): ApJ 657, 810-837
================================================================
         7 = grain model
 4.000E-08 4.000E-01 4.500E-05 = a_01 (cm) , sigma_1 , b_C1/0.92
 2.500E-07 4.000E-01 1.500E-05 = a_02 (cm) , sigma_2 , b_C2/0.92
 7.000E-01 1.000E+04 2.000E+00 = Umin , Umax, beta (dN/dU propto U^{-beta})
 6.697E+00 = <U> 
     mmp83 = radfield
 3.062E-23 = power/H (erg s-1)
 band   nu*P_nu(band) j_nu(band)
 (um)   (erg s-1 H-1)(Jy cm2 sr-1 H-1)
1.270E+00  1.227E-25  4.133E-18 COBE-DIRBE
2.220E+00  1.569E-25  9.241E-18 COBE-DIRBE
3.530E+00  1.022E-24  9.565E-17 COBE-DIRBE
4.880E+00  4.768E-25  6.172E-17 COBE-DIRBE
1.229E+01  4.436E-24  1.446E-15 COBE-DIRBE
2.079E+01  4.477E-24  2.469E-15 COBE-DIRBE
5.599E+01  1.379E-23  2.048E-14 COBE-DIRBE
9.770E+01  1.030E-23  2.671E-14 COBE-DIRBE
1.479E+02  6.324E-24  2.481E-14 COBE-DIRBE
2.479E+02  1.872E-24  1.231E-14 COBE-DIRBE
1.200E+01  4.669E-24  1.486E-15 IRAS
2.500E+01  5.298E-24  3.513E-15 IRAS
6.000E+01  1.351E-23  2.151E-14 IRAS
1.000E+02  1.008E-23  2.674E-14 IRAS
3.550E+00  1.188E-24  1.119E-16 SST-IRAC
4.493E+00  3.339E-25  3.980E-17 SST-IRAC
5.731E+00  2.839E-24  4.316E-16 SST-IRAC
7.872E+00  6.749E-24  1.409E-15 SST-IRAC
2.368E+01  4.670E-24  2.933E-15 SST-MIPS
7.142E+01  1.159E-23  2.196E-14 SST-MIPS
1.559E+02  5.423E-24  2.243E-14 SST-MIPS
1.600E+01  3.752E-24  1.592E-15 SST-IRSPU
2.200E+01  4.621E-24  2.697E-15 SST-IRSPU











lambda    nu*dP/dnu     j_nu
 (um)   (erg s-1 H-1)(Jy cm2 sr-1 H-1)
1.000E+04  6.041E-31  1.602E-19
9.908E+03  6.261E-31  1.646E-19
9.817E+03  6.490E-31  1.690E-19
9.727E+03  6.727E-31  1.736E-19
9.638E+03  6.972E-31  1.783E-19
9.550E+03  7.227E-31  1.831E-19
9.462E+03  7.491E-31  1.880E-19
9.376E+03  7.764E-31  1.931E-19
9.290E+03  8.048E-31  1.983E-19
9.204E+03  8.342E-31  2.037E-19
9.120E+03  8.646E-31  2.092E-19
9.036E+03  8.962E-31  2.148E-19
8.954E+03  9.288E-31  2.206E-19
8.872E+03  9.626E-31  2.265E-19
8.790E+03  9.975E-31  2.326E-19
8.710E+03  1.034E-30  2.388E-19
8.630E+03  1.071E-30  2.453E-19
8.551E+03  1.110E-30  2.519E-19
8.472E+03  1.151E-30  2.586E-19
8.395E+03  1.193E-30  2.656E-19
8.318E+03  1.236E-30  2.728E-19
8.241E+03  1.281E-30  2.801E-19
8.166E+03  1.328E-30  2.877E-19
8.091E+03  1.377E-30  2.955E-19
8.017E+03  1.427E-30  3.035E-19
7.943E+03  1.479E-30  3.117E-19
7.870E+03  1.533E-30  3.201E-19
7.798E+03  1.590E-30  3.288E-19
7.727E+03  1.648E-30  3.377E-19
7.656E+03  1.708E-30  3.469E-19
7.586E+03  1.771E-30  3.563E-19
7.516E+03  1.836E-30  3.660E-19
7.447E+03  1.903E-30  3.760E-19
7.379E+03  1.973E-30  3.862E-19
7.311E+03  2.046E-30  3.968E-19
7.244E+03  2.121E-30  4.076E-19
7.178E+03  2.199E-30  4.187E-19
7.112E+03  2.280E-30  4.302E-19
7.047E+03  2.364E-30  4.420E-19
6.982E+03  2.452E-30  4.540E-19
6.918E+03  2.542E-30  4.665E-19
6.855E+03  2.635E-30  4.792E-19
6.792E+03  2.733E-30  4.923E-19
6.730E+03  2.833E-30  5.058E-19
6.668E+03  2.938E-30  5.197E-19
6.607E+03  3.047E-30  5.339E-19
6.546E+03  3.159E-30  5.486E-19
6.486E+03  3.276E-30  5.637E-19
6.427E+03  3.398E-30  5.792E-19
6.368E+03  3.523E-30  5.952E-19
6.310E+03  3.654E-30  6.116E-19
6.252E+03  3.790E-30  6.284E-19
6.194E+03  3.930E-30  6.458E-19
6.138E+03  4.076E-30  6.636E-19
6.081E+03  4.228E-30  6.820E-19
6.026E+03  4.385E-30  7.008E-19
5.970E+03  4.548E-30  7.203E-19
5.916E+03  4.717E-30  7.402E-19
5.861E+03  4.893E-30  7.608E-19
5.808E+03  5.075E-30  7.819E-19
5.754E+03  5.265E-30  8.036E-19
5.702E+03  5.461E-30  8.260E-19
5.649E+03  5.665E-30  8.490E-19
5.598E+03  5.877E-30  8.726E-19
5.546E+03  6.097E-30  8.969E-19
5.495E+03  6.325E-30  9.220E-19
5.445E+03  6.562E-30  9.477E-19
5.395E+03  6.807E-30  9.742E-19
5.346E+03  7.062E-30  1.001E-18
5.297E+03  7.327E-30  1.029E-18
5.248E+03  7.602E-30  1.058E-18
5.200E+03  7.887E-30  1.088E-18
5.152E+03  8.184E-30  1.118E-18
5.105E+03  8.491E-30  1.150E-18
5.058E+03  8.811E-30  1.182E-18
5.012E+03  9.142E-30  1.215E-18
4.966E+03  9.486E-30  1.250E-18
4.920E+03  9.843E-30  1.285E-18
4.875E+03  1.021E-29  1.321E-18
4.831E+03  1.060E-29  1.358E-18
4.786E+03  1.100E-29  1.396E-18
4.742E+03  1.141E-29  1.436E-18
4.699E+03  1.184E-29  1.476E-18
4.656E+03  1.229E-29  1.518E-18
4.613E+03  1.276E-29  1.561E-18
4.571E+03  1.324E-29  1.605E-18
4.529E+03  1.374E-29  1.651E-18
4.487E+03  1.426E-29  1.697E-18
4.446E+03  1.480E-29  1.746E-18
4.406E+03  1.536E-29  1.795E-18
4.365E+03  1.595E-29  1.846E-18
4.325E+03  1.655E-29  1.899E-18
4.285E+03  1.718E-29  1.953E-18
4.246E+03  1.783E-29  2.009E-18
4.207E+03  1.851E-29  2.066E-18
4.169E+03  1.922E-29  2.125E-18
4.130E+03  1.995E-29  2.186E-18
4.093E+03  2.071E-29  2.248E-18
4.055E+03  2.150E-29  2.312E-18
4.018E+03  2.232E-29  2.379E-18
3.981E+03  2.317E-29  2.447E-18
3.945E+03  2.405E-29  2.517E-18
3.908E+03  2.497E-29  2.589E-18
3.873E+03  2.593E-29  2.663E-18
3.837E+03  2.692E-29  2.740E-18
3.802E+03  2.795E-29  2.818E-18
3.767E+03  2.902E-29  2.899E-18
3.733E+03  3.013E-29  2.983E-18
3.698E+03  3.128E-29  3.069E-18
3.664E+03  3.248E-29  3.157E-18
3.631E+03  3.373E-29  3.248E-18
3.597E+03  3.503E-29  3.342E-18
3.565E+03  3.637E-29  3.439E-18
3.532E+03  3.777E-29  3.539E-18
3.499E+03  3.923E-29  3.641E-18
3.467E+03  4.074E-29  3.747E-18
3.436E+03  4.231E-29  3.855E-18
3.404E+03  4.394E-29  3.968E-18
3.373E+03  4.564E-29  4.083E-18
3.342E+03  4.740E-29  4.202E-18
3.311E+03  4.923E-29  4.324E-18
3.281E+03  5.113E-29  4.450E-18
3.251E+03  5.311E-29  4.580E-18
3.221E+03  5.517E-29  4.714E-18
3.192E+03  5.731E-29  4.852E-18
3.162E+03  5.953E-29  4.994E-18
3.133E+03  6.184E-29  5.140E-18
3.105E+03  6.424E-29  5.290E-18
3.076E+03  6.674E-29  5.445E-18
3.048E+03  6.933E-29  5.605E-18
3.020E+03  7.203E-29  5.770E-18
2.992E+03  7.483E-29  5.939E-18
2.965E+03  7.773E-29  6.113E-18
2.938E+03  8.075E-29  6.292E-18
2.911E+03  8.389E-29  6.477E-18
2.884E+03  8.715E-29  6.667E-18
2.858E+03  9.054E-29  6.863E-18
2.831E+03  9.407E-29  7.065E-18
2.805E+03  9.773E-29  7.273E-18
2.780E+03  1.015E-28  7.487E-18
2.754E+03  1.055E-28  7.708E-18
2.729E+03  1.096E-28  7.936E-18
2.704E+03  1.139E-28  8.170E-18
2.679E+03  1.184E-28  8.412E-18
2.655E+03  1.230E-28  8.661E-18
2.630E+03  1.278E-28  8.917E-18
2.606E+03  1.328E-28  9.181E-18
2.582E+03  1.380E-28  9.454E-18
2.559E+03  1.434E-28  9.734E-18
2.535E+03  1.491E-28  1.002E-17
2.512E+03  1.549E-28  1.032E-17
2.489E+03  1.610E-28  1.063E-17
2.466E+03  1.673E-28  1.095E-17
2.443E+03  1.739E-28  1.127E-17
2.421E+03  1.807E-28  1.161E-17
2.399E+03  1.879E-28  1.195E-17
2.377E+03  1.953E-28  1.231E-17
2.355E+03  2.029E-28  1.268E-17
2.333E+03  2.109E-28  1.306E-17
2.312E+03  2.193E-28  1.345E-17
2.291E+03  2.279E-28  1.385E-17
2.270E+03  2.369E-28  1.426E-17
2.249E+03  2.463E-28  1.469E-17
2.228E+03  2.560E-28  1.513E-17
2.208E+03  2.661E-28  1.559E-17
2.188E+03  2.766E-28  1.605E-17
2.168E+03  2.876E-28  1.654E-17
2.148E+03  2.990E-28  1.703E-17
2.128E+03  3.108E-28  1.754E-17
2.109E+03  3.231E-28  1.807E-17
2.089E+03  3.359E-28  1.862E-17
2.070E+03  3.492E-28  1.918E-17
2.051E+03  3.630E-28  1.975E-17
2.032E+03  3.774E-28  2.035E-17
2.014E+03  3.924E-28  2.096E-17
1.995E+03  4.080E-28  2.159E-17
1.977E+03  4.242E-28  2.224E-17
1.959E+03  4.410E-28  2.291E-17
1.941E+03  4.585E-28  2.360E-17
1.923E+03  4.767E-28  2.432E-17
1.905E+03  4.956E-28  2.505E-17
1.888E+03  5.153E-28  2.581E-17
1.871E+03  5.358E-28  2.659E-17
1.854E+03  5.571E-28  2.739E-17
1.837E+03  5.792E-28  2.822E-17
1.820E+03  6.022E-28  2.907E-17
1.803E+03  6.262E-28  2.995E-17
1.786E+03  6.511E-28  3.085E-17
1.770E+03  6.770E-28  3.179E-17
1.754E+03  7.039E-28  3.275E-17
1.738E+03  7.319E-28  3.374E-17
1.722E+03  7.611E-28  3.476E-17
1.706E+03  7.914E-28  3.581E-17
1.690E+03  8.229E-28  3.690E-17
1.675E+03  8.556E-28  3.802E-17
1.660E+03  8.897E-28  3.917E-17
1.644E+03  9.251E-28  4.035E-17
1.629E+03  9.620E-28  4.158E-17
1.614E+03  1.000E-27  4.284E-17
1.600E+03  1.040E-27  4.413E-17
1.585E+03  1.082E-27  4.547E-17
1.570E+03  1.125E-27  4.685E-17
1.556E+03  1.169E-27  4.827E-17
1.542E+03  1.216E-27  4.973E-17
1.528E+03  1.264E-27  5.123E-17
1.514E+03  1.315E-27  5.279E-17
1.500E+03  1.367E-27  5.438E-17
1.486E+03  1.422E-27  5.603E-17
1.472E+03  1.478E-27  5.773E-17
1.459E+03  1.537E-27  5.948E-17
1.445E+03  1.598E-27  6.128E-17
1.432E+03  1.662E-27  6.314E-17
1.419E+03  1.728E-27  6.506E-17
1.406E+03  1.797E-27  6.703E-17
1.393E+03  1.869E-27  6.906E-17
1.380E+03  1.943E-27  7.115E-17
1.368E+03  2.021E-27  7.330E-17
1.355E+03  2.101E-27  7.552E-17
1.343E+03  2.185E-27  7.781E-17
1.330E+03  2.272E-27  8.017E-17
1.318E+03  2.362E-27  8.259E-17
1.306E+03  2.456E-27  8.509E-17
1.294E+03  2.554E-27  8.766E-17
1.282E+03  2.655E-27  9.031E-17
1.271E+03  2.761E-27  9.304E-17
1.259E+03  2.870E-27  9.585E-17
1.247E+03  2.984E-27  9.875E-17
1.236E+03  3.103E-27  1.017E-16
1.225E+03  3.226E-27  1.048E-16
1.213E+03  3.354E-27  1.080E-16
1.202E+03  3.487E-27  1.112E-16
1.191E+03  3.625E-27  1.146E-16
1.180E+03  3.769E-27  1.180E-16
1.169E+03  3.918E-27  1.216E-16
1.159E+03  4.073E-27  1.252E-16
1.148E+03  4.235E-27  1.290E-16
1.138E+03  4.402E-27  1.328E-16
1.127E+03  4.576E-27  1.368E-16
1.117E+03  4.757E-27  1.409E-16
1.107E+03  4.945E-27  1.452E-16
1.096E+03  5.140E-27  1.495E-16
1.086E+03  5.343E-27  1.540E-16
1.076E+03  5.554E-27  1.586E-16
1.067E+03  5.773E-27  1.633E-16
1.057E+03  6.000E-27  1.682E-16
1.047E+03  6.236E-27  1.732E-16
1.038E+03  6.481E-27  1.784E-16
1.028E+03  6.736E-27  1.837E-16
1.019E+03  7.001E-27  1.892E-16
1.009E+03  7.276E-27  1.948E-16
1.000E+03  7.561E-27  2.006E-16
9.908E+02  7.858E-27  2.065E-16
9.817E+02  8.166E-27  2.127E-16
9.727E+02  8.486E-27  2.190E-16
9.638E+02  8.819E-27  2.255E-16
9.550E+02  9.164E-27  2.321E-16
9.462E+02  9.522E-27  2.390E-16
9.376E+02  9.894E-27  2.461E-16
9.290E+02  1.028E-26  2.533E-16
9.204E+02  1.068E-26  2.608E-16
9.120E+02  1.110E-26  2.685E-16
9.036E+02  1.153E-26  2.764E-16
8.954E+02  1.198E-26  2.845E-16
8.872E+02  1.244E-26  2.929E-16
8.790E+02  1.293E-26  3.014E-16
8.710E+02  1.343E-26  3.102E-16
8.630E+02  1.395E-26  3.193E-16
8.551E+02  1.449E-26  3.286E-16
8.472E+02  1.505E-26  3.382E-16
8.395E+02  1.563E-26  3.480E-16
8.318E+02  1.623E-26  3.581E-16
8.241E+02  1.686E-26  3.685E-16
8.166E+02  1.750E-26  3.792E-16
8.091E+02  1.818E-26  3.901E-16
8.017E+02  1.887E-26  4.014E-16
7.943E+02  1.960E-26  4.129E-16
7.870E+02  2.035E-26  4.248E-16
7.798E+02  2.112E-26  4.370E-16
7.727E+02  2.193E-26  4.495E-16
7.656E+02  2.277E-26  4.624E-16
7.586E+02  2.364E-26  4.756E-16
7.516E+02  2.454E-26  4.892E-16
7.447E+02  2.547E-26  5.031E-16
7.379E+02  2.644E-26  5.175E-16
7.311E+02  2.745E-26  5.323E-16
7.244E+02  2.849E-26  5.475E-16
7.178E+02  2.957E-26  5.631E-16
7.112E+02  3.070E-26  5.791E-16
7.047E+02  3.186E-26  5.956E-16
6.982E+02  3.307E-26  6.125E-16
6.918E+02  3.432E-26  6.299E-16
6.855E+02  3.562E-26  6.477E-16
6.792E+02  3.697E-26  6.661E-16
6.730E+02  3.837E-26  6.849E-16
6.668E+02  3.981E-26  7.042E-16
6.607E+02  4.131E-26  7.240E-16
6.546E+02  4.287E-26  7.444E-16
6.486E+02  4.449E-26  7.654E-16
6.427E+02  4.617E-26  7.871E-16
6.368E+02  4.791E-26  8.093E-16
6.310E+02  4.972E-26  8.321E-16
6.252E+02  5.159E-26  8.555E-16
6.194E+02  5.353E-26  8.796E-16
6.138E+02  5.555E-26  9.043E-16
6.081E+02  5.764E-26  9.298E-16
6.026E+02  5.980E-26  9.559E-16
5.970E+02  6.205E-26  9.827E-16
5.916E+02  6.438E-26  1.010E-15
5.861E+02  6.679E-26  1.038E-15
5.808E+02  6.930E-26  1.068E-15
5.754E+02  7.189E-26  1.097E-15
5.702E+02  7.458E-26  1.128E-15
5.649E+02  7.737E-26  1.159E-15
5.598E+02  8.026E-26  1.192E-15
5.546E+02  8.326E-26  1.225E-15
5.495E+02  8.637E-26  1.259E-15
5.445E+02  8.959E-26  1.294E-15
5.395E+02  9.293E-26  1.330E-15
5.346E+02  9.639E-26  1.367E-15
5.297E+02  9.997E-26  1.405E-15
5.248E+02  1.037E-25  1.443E-15
5.200E+02  1.075E-25  1.483E-15
5.152E+02  1.115E-25  1.524E-15
5.105E+02  1.157E-25  1.566E-15
5.058E+02  1.199E-25  1.609E-15
5.012E+02  1.244E-25  1.654E-15
4.966E+02  1.290E-25  1.699E-15
4.920E+02  1.337E-25  1.745E-15
4.875E+02  1.387E-25  1.793E-15
4.831E+02  1.438E-25  1.842E-15
4.786E+02  1.491E-25  1.892E-15
4.742E+02  1.545E-25  1.944E-15
4.699E+02  1.602E-25  1.997E-15
4.656E+02  1.661E-25  2.051E-15
4.613E+02  1.721E-25  2.106E-15
4.571E+02  1.784E-25  2.163E-15
4.529E+02  1.849E-25  2.222E-15
4.487E+02  1.917E-25  2.282E-15
4.446E+02  1.987E-25  2.343E-15
4.406E+02  2.059E-25  2.406E-15
4.365E+02  2.133E-25  2.470E-15
4.325E+02  2.211E-25  2.536E-15
4.285E+02  2.291E-25  2.604E-15
4.246E+02  2.373E-25  2.673E-15
4.207E+02  2.459E-25  2.744E-15
4.169E+02  2.548E-25  2.817E-15
4.130E+02  2.639E-25  2.892E-15
4.093E+02  2.734E-25  2.968E-15
4.055E+02  2.832E-25  3.046E-15
4.018E+02  2.933E-25  3.126E-15
3.981E+02  3.038E-25  3.208E-15
3.945E+02  3.147E-25  3.292E-15
3.908E+02  3.259E-25  3.378E-15
3.873E+02  3.375E-25  3.466E-15
3.837E+02  3.494E-25  3.557E-15
3.802E+02  3.618E-25  3.649E-15
3.767E+02  3.746E-25  3.743E-15
3.733E+02  3.878E-25  3.840E-15
3.698E+02  4.015E-25  3.939E-15
3.664E+02  4.156E-25  4.040E-15
3.631E+02  4.302E-25  4.143E-15
3.597E+02  4.453E-25  4.249E-15
3.565E+02  4.608E-25  4.357E-15
3.532E+02  4.769E-25  4.468E-15
3.499E+02  4.935E-25  4.581E-15
3.467E+02  5.106E-25  4.696E-15
3.436E+02  5.283E-25  4.814E-15
3.404E+02  5.465E-25  4.935E-15
3.373E+02  5.653E-25  5.058E-15
3.342E+02  5.848E-25  5.184E-15
3.311E+02  6.048E-25  5.312E-15
3.281E+02  6.255E-25  5.444E-15
3.251E+02  6.468E-25  5.577E-15
3.221E+02  6.688E-25  5.714E-15
3.192E+02  6.915E-25  5.854E-15
3.162E+02  7.149E-25  5.996E-15
3.133E+02  7.389E-25  6.141E-15
3.105E+02  7.638E-25  6.290E-15
3.076E+02  7.894E-25  6.441E-15
3.048E+02  8.158E-25  6.595E-15
3.020E+02  8.429E-25  6.753E-15
2.992E+02  8.709E-25  6.913E-15
2.965E+02  8.998E-25  7.076E-15
2.938E+02  9.294E-25  7.243E-15
2.911E+02  9.600E-25  7.412E-15
2.884E+02  9.914E-25  7.585E-15
2.858E+02  1.024E-24  7.761E-15
2.831E+02  1.057E-24  7.940E-15
2.805E+02  1.091E-24  8.122E-15
2.780E+02  1.127E-24  8.308E-15
2.754E+02  1.163E-24  8.497E-15
2.729E+02  1.200E-24  8.690E-15
2.704E+02  1.239E-24  8.887E-15
2.679E+02  1.279E-24  9.087E-15
2.655E+02  1.319E-24  9.291E-15
2.630E+02  1.361E-24  9.498E-15
2.606E+02  1.404E-24  9.709E-15
2.582E+02  1.449E-24  9.923E-15
2.559E+02  1.494E-24  1.014E-14
2.535E+02  1.540E-24  1.036E-14
2.512E+02  1.588E-24  1.058E-14
2.489E+02  1.635E-24  1.080E-14
2.466E+02  1.683E-24  1.101E-14
2.443E+02  1.732E-24  1.123E-14
2.421E+02  1.782E-24  1.144E-14
2.399E+02  1.832E-24  1.166E-14
2.377E+02  1.883E-24  1.187E-14
2.355E+02  1.935E-24  1.209E-14
2.333E+02  1.988E-24  1.230E-14
2.312E+02  2.042E-24  1.252E-14
2.291E+02  2.097E-24  1.274E-14
2.270E+02  2.153E-24  1.296E-14
2.249E+02  2.211E-24  1.319E-14
2.228E+02  2.269E-24  1.341E-14
2.208E+02  2.329E-24  1.364E-14
2.188E+02  2.390E-24  1.387E-14
2.168E+02  2.452E-24  1.410E-14
2.148E+02  2.516E-24  1.433E-14
2.128E+02  2.580E-24  1.457E-14
2.109E+02  2.646E-24  1.480E-14
2.089E+02  2.713E-24  1.504E-14
2.070E+02  2.781E-24  1.527E-14
2.051E+02  2.850E-24  1.551E-14
2.032E+02  2.921E-24  1.575E-14
2.014E+02  2.993E-24  1.599E-14
1.995E+02  3.066E-24  1.623E-14
1.977E+02  3.140E-24  1.647E-14
1.959E+02  3.216E-24  1.671E-14
1.941E+02  3.293E-24  1.695E-14
1.923E+02  3.371E-24  1.720E-14
1.905E+02  3.450E-24  1.744E-14
1.888E+02  3.531E-24  1.768E-14
1.871E+02  3.613E-24  1.793E-14
1.854E+02  3.697E-24  1.818E-14
1.837E+02  3.782E-24  1.842E-14
1.820E+02  3.868E-24  1.867E-14
1.803E+02  3.955E-24  1.892E-14
1.786E+02  4.044E-24  1.916E-14
1.770E+02  4.135E-24  1.941E-14
1.754E+02  4.227E-24  1.966E-14
1.738E+02  4.320E-24  1.991E-14
1.722E+02  4.415E-24  2.017E-14
1.706E+02  4.512E-24  2.042E-14
1.690E+02  4.610E-24  2.067E-14
1.675E+02  4.710E-24  2.093E-14
1.660E+02  4.812E-24  2.118E-14
1.644E+02  4.916E-24  2.144E-14
1.629E+02  5.022E-24  2.170E-14
1.614E+02  5.130E-24  2.197E-14
1.600E+02  5.240E-24  2.223E-14
1.585E+02  5.352E-24  2.250E-14
1.570E+02  5.467E-24  2.277E-14
1.556E+02  5.585E-24  2.305E-14
1.542E+02  5.706E-24  2.333E-14
1.528E+02  5.829E-24  2.362E-14
1.514E+02  5.955E-24  2.391E-14
1.500E+02  6.084E-24  2.420E-14
1.486E+02  6.215E-24  2.450E-14
1.472E+02  6.349E-24  2.479E-14
1.459E+02  6.482E-24  2.508E-14
1.445E+02  6.616E-24  2.537E-14
1.432E+02  6.748E-24  2.563E-14
1.419E+02  6.874E-24  2.587E-14
1.406E+02  6.993E-24  2.608E-14
1.393E+02  7.102E-24  2.624E-14
1.380E+02  7.200E-24  2.636E-14
1.368E+02  7.288E-24  2.644E-14
1.355E+02  7.367E-24  2.648E-14
1.343E+02  7.439E-24  2.650E-14
1.330E+02  7.508E-24  2.650E-14
1.318E+02  7.575E-24  2.649E-14
1.306E+02  7.641E-24  2.647E-14
1.294E+02  7.709E-24  2.646E-14
1.282E+02  7.778E-24  2.646E-14
1.271E+02  7.848E-24  2.645E-14
1.259E+02  7.921E-24  2.645E-14
1.247E+02  7.996E-24  2.646E-14
1.236E+02  8.073E-24  2.647E-14
1.225E+02  8.151E-24  2.648E-14
1.213E+02  8.232E-24  2.650E-14
1.202E+02  8.315E-24  2.652E-14
1.191E+02  8.399E-24  2.654E-14
1.180E+02  8.484E-24  2.656E-14
1.169E+02  8.569E-24  2.658E-14
1.159E+02  8.653E-24  2.660E-14
1.148E+02  8.740E-24  2.662E-14
1.138E+02  8.828E-24  2.664E-14
1.127E+02  8.915E-24  2.666E-14
1.117E+02  9.005E-24  2.668E-14
1.107E+02  9.095E-24  2.670E-14
1.096E+02  9.185E-24  2.671E-14
1.086E+02  9.276E-24  2.673E-14
1.076E+02  9.366E-24  2.674E-14
1.067E+02  9.457E-24  2.676E-14
1.057E+02  9.548E-24  2.677E-14
1.047E+02  9.639E-24  2.677E-14
1.038E+02  9.730E-24  2.678E-14
1.028E+02  9.819E-24  2.678E-14
1.019E+02  9.907E-24  2.677E-14
1.009E+02  9.996E-24  2.676E-14
1.000E+02  1.008E-23  2.675E-14
9.908E+01  1.017E-23  2.673E-14
9.817E+01  1.026E-23  2.671E-14
9.727E+01  1.034E-23  2.668E-14
9.638E+01  1.043E-23  2.666E-14
9.550E+01  1.051E-23  2.663E-14
9.462E+01  1.059E-23  2.659E-14
9.376E+01  1.068E-23  2.655E-14
9.290E+01  1.076E-23  2.651E-14
9.204E+01  1.084E-23  2.646E-14
9.120E+01  1.092E-23  2.641E-14
9.036E+01  1.100E-23  2.636E-14
8.954E+01  1.107E-23  2.630E-14
8.872E+01  1.115E-23  2.624E-14
8.790E+01  1.123E-23  2.618E-14
8.710E+01  1.130E-23  2.611E-14
8.630E+01  1.138E-23  2.604E-14
8.551E+01  1.145E-23  2.597E-14
8.472E+01  1.152E-23  2.588E-14
8.395E+01  1.159E-23  2.581E-14
8.318E+01  1.166E-23  2.573E-14
8.241E+01  1.173E-23  2.564E-14
8.166E+01  1.180E-23  2.555E-14
8.091E+01  1.187E-23  2.547E-14
8.017E+01  1.193E-23  2.537E-14
7.943E+01  1.200E-23  2.528E-14
7.870E+01  1.206E-23  2.518E-14
7.798E+01  1.213E-23  2.508E-14
7.727E+01  1.219E-23  2.498E-14
7.656E+01  1.225E-23  2.488E-14
7.586E+01  1.231E-23  2.477E-14
7.516E+01  1.237E-23  2.466E-14
7.447E+01  1.243E-23  2.455E-14
7.379E+01  1.248E-23  2.443E-14
7.311E+01  1.254E-23  2.431E-14
7.244E+01  1.259E-23  2.419E-14
7.178E+01  1.264E-23  2.406E-14
7.112E+01  1.269E-23  2.394E-14
7.047E+01  1.274E-23  2.382E-14
6.982E+01  1.279E-23  2.369E-14
6.918E+01  1.284E-23  2.357E-14
6.855E+01  1.289E-23  2.344E-14
6.792E+01  1.294E-23  2.331E-14
6.730E+01  1.299E-23  2.318E-14
6.668E+01  1.303E-23  2.305E-14
6.607E+01  1.308E-23  2.292E-14
6.546E+01  1.312E-23  2.278E-14
6.486E+01  1.317E-23  2.265E-14
6.427E+01  1.321E-23  2.252E-14
6.368E+01  1.325E-23  2.238E-14
6.310E+01  1.329E-23  2.224E-14
6.252E+01  1.333E-23  2.211E-14
6.194E+01  1.337E-23  2.197E-14
6.138E+01  1.341E-23  2.184E-14
6.081E+01  1.345E-23  2.170E-14
6.026E+01  1.349E-23  2.157E-14
5.970E+01  1.353E-23  2.143E-14
5.916E+01  1.357E-23  2.129E-14
5.861E+01  1.361E-23  2.115E-14
5.808E+01  1.364E-23  2.102E-14
5.754E+01  1.368E-23  2.088E-14
5.702E+01  1.371E-23  2.074E-14
5.649E+01  1.375E-23  2.061E-14
5.598E+01  1.379E-23  2.047E-14
5.546E+01  1.382E-23  2.034E-14
5.495E+01  1.386E-23  2.020E-14
5.445E+01  1.389E-23  2.007E-14
5.395E+01  1.393E-23  1.994E-14
5.346E+01  1.397E-23  1.981E-14
5.297E+01  1.400E-23  1.967E-14
5.248E+01  1.404E-23  1.954E-14
5.200E+01  1.407E-23  1.941E-14
5.152E+01  1.411E-23  1.929E-14
5.105E+01  1.415E-23  1.915E-14
5.058E+01  1.418E-23  1.903E-14
5.012E+01  1.422E-23  1.890E-14
4.966E+01  1.425E-23  1.877E-14
