Dust emission from Draine & Li (2007): ApJ 657, 810-837
==========================================================
         1 = grain model
 4.000E-08 4.000E-01 0.000E+00 = a_01 (cm) , sigma_1 , b_C1/0.92
 2.000E-07 5.500E-01 0.000E+00 = a_02 (cm) , sigma_2 , b_C2/0.92
 7.000E-01 1.000E+06 2.000E+00 = Umin , Umax, beta (dN/dU propto U^{-beta})
 9.921E+00 = <U> 
     mmp83 = radfield
 4.428E-23 = power/H (erg s-1)
 band   nu*P_nu(band) j_nu(band)
 (um)   (erg s-1 H-1)(Jy cm2 sr-1 H-1)
1.270E+00  1.729E-26  5.825E-19 COBE-DIRBE
2.220E+00  2.191E-26  1.290E-18 COBE-DIRBE
3.530E+00  1.907E-25  1.786E-17 COBE-DIRBE
4.880E+00  3.941E-25  5.102E-17 COBE-DIRBE
1.229E+01  5.248E-24  1.711E-15 COBE-DIRBE
2.079E+01  1.182E-23  6.520E-15 COBE-DIRBE
5.599E+01  1.954E-23  2.902E-14 COBE-DIRBE
9.770E+01  1.245E-23  3.226E-14 COBE-DIRBE
1.479E+02  7.240E-24  2.840E-14 COBE-DIRBE
2.479E+02  2.067E-24  1.359E-14 COBE-DIRBE
1.200E+01  4.881E-24  1.554E-15 IRAS
2.500E+01  1.493E-23  9.900E-15 IRAS
6.000E+01  1.891E-23  3.009E-14 IRAS
1.000E+02  1.212E-23  3.215E-14 IRAS
3.550E+00  2.147E-25  2.022E-17 SST-IRAC
4.493E+00  2.632E-25  3.137E-17 SST-IRAC
5.731E+00  1.345E-24  2.044E-16 SST-IRAC
7.872E+00  4.292E-24  8.962E-16 SST-IRAC
2.368E+01  1.409E-23  8.853E-15 SST-MIPS
7.142E+01  1.484E-23  2.811E-14 SST-MIPS
1.559E+02  6.158E-24  2.547E-14 SST-MIPS
1.600E+01  7.232E-24  3.069E-15 SST-IRSPU
2.200E+01  1.369E-23  7.987E-15 SST-IRSPU
7.500E+01  1.281E-23  2.549E-14 Herschel-PACS
1.100E+02  8.716E-24  2.543E-14 Herschel-PACS
1.700E+02  4.686E-24  2.113E-14 Herschel-PACS
2.500E+02  1.753E-24  1.163E-14 Herschel-SPIRE
3.600E+02  4.943E-25  4.720E-15 Herschel-SPIRE
5.200E+02  1.218E-25  1.680E-15 Herschel-SPIRE
2.400E+00  2.839E-26  1.807E-18 Akari IRC NIR N2
3.200E+00  1.379E-25  1.171E-17 Akari IRC NIR N3
4.100E+00  2.523E-25  2.744E-17 Akari IRC NIR N4
7.000E+00  4.184E-24  7.769E-16 Akari IRC MIR-S S7
9.000E+00  4.296E-24  1.026E-15 Akari IRC MIR-S S9W
1.100E+01  4.604E-24  1.343E-15 Akari IRC MIR-S S11
1.500E+01  7.641E-24  3.040E-15 Akari IRC MIR-L L15
1.800E+01  1.043E-23  4.980E-15 Akari IRC MIR-L L18W
2.400E+01  1.377E-23  8.768E-15 Akari IRC MIR-L L24
6.500E+01  1.710E-23  2.949E-14 Akari FIS N60
8.000E+01  1.401E-23  2.974E-14 Akari FIS WIDE-S
1.400E+02  7.231E-24  2.685E-14 Akari FIS WIDE-L
1.600E+02  5.869E-24  2.491E-14 Akari FIS N160
 
 
 
 


lambda    nu*dP/dnu     j_nu
 (um)   (erg s-1 H-1)(Jy cm2 sr-1 H-1)
1.000E+04  6.121E-31  1.624E-19
9.908E+03  6.346E-31  1.668E-19
9.817E+03  6.578E-31  1.713E-19
9.727E+03  6.820E-31  1.760E-19
9.638E+03  7.070E-31  1.807E-19
9.550E+03  7.329E-31  1.857E-19
9.462E+03  7.598E-31  1.907E-19
9.376E+03  7.876E-31  1.959E-19
9.290E+03  8.165E-31  2.012E-19
9.204E+03  8.465E-31  2.067E-19
9.120E+03  8.775E-31  2.123E-19
9.036E+03  9.097E-31  2.181E-19
8.954E+03  9.430E-31  2.240E-19
8.872E+03  9.774E-31  2.300E-19
8.790E+03  1.013E-30  2.362E-19
8.710E+03  1.050E-30  2.426E-19
8.630E+03  1.089E-30  2.492E-19
8.551E+03  1.128E-30  2.559E-19
8.472E+03  1.170E-30  2.629E-19
8.395E+03  1.212E-30  2.700E-19
8.318E+03  1.257E-30  2.773E-19
8.241E+03  1.303E-30  2.848E-19
8.166E+03  1.351E-30  2.926E-19
8.091E+03  1.400E-30  3.006E-19
8.017E+03  1.452E-30  3.087E-19
7.943E+03  1.505E-30  3.172E-19
7.870E+03  1.561E-30  3.258E-19
7.798E+03  1.618E-30  3.347E-19
7.727E+03  1.678E-30  3.438E-19
7.656E+03  1.739E-30  3.532E-19
7.586E+03  1.803E-30  3.629E-19
7.516E+03  1.870E-30  3.728E-19
7.447E+03  1.939E-30  3.830E-19
7.379E+03  2.011E-30  3.935E-19
7.311E+03  2.085E-30  4.043E-19
7.244E+03  2.162E-30  4.154E-19
7.178E+03  2.242E-30  4.269E-19
7.112E+03  2.325E-30  4.386E-19
7.047E+03  2.411E-30  4.507E-19
6.982E+03  2.500E-30  4.631E-19
6.918E+03  2.593E-30  4.758E-19
6.855E+03  2.689E-30  4.889E-19
6.792E+03  2.788E-30  5.024E-19
6.730E+03  2.892E-30  5.162E-19
6.668E+03  2.999E-30  5.304E-19
6.607E+03  3.110E-30  5.451E-19
6.546E+03  3.226E-30  5.601E-19
6.486E+03  3.346E-30  5.756E-19
6.427E+03  3.470E-30  5.916E-19
6.368E+03  3.599E-30  6.079E-19
6.310E+03  3.733E-30  6.248E-19
6.252E+03  3.872E-30  6.421E-19
6.194E+03  4.016E-30  6.600E-19
6.138E+03  4.166E-30  6.783E-19
6.081E+03  4.322E-30  6.972E-19
6.026E+03  4.483E-30  7.166E-19
5.970E+03  4.651E-30  7.365E-19
5.916E+03  4.825E-30  7.570E-19
5.861E+03  5.005E-30  7.782E-19
5.808E+03  5.192E-30  7.999E-19
5.754E+03  5.387E-30  8.222E-19
5.702E+03  5.589E-30  8.452E-19
5.649E+03  5.798E-30  8.689E-19
5.598E+03  6.016E-30  8.932E-19
5.546E+03  6.241E-30  9.182E-19
5.495E+03  6.476E-30  9.440E-19
5.445E+03  6.719E-30  9.705E-19
5.395E+03  6.972E-30  9.977E-19
5.346E+03  7.234E-30  1.026E-18
5.297E+03  7.506E-30  1.055E-18
5.248E+03  7.789E-30  1.084E-18
5.200E+03  8.082E-30  1.115E-18
5.152E+03  8.387E-30  1.146E-18
5.105E+03  8.703E-30  1.179E-18
5.058E+03  9.032E-30  1.212E-18
5.012E+03  9.373E-30  1.246E-18
4.966E+03  9.727E-30  1.281E-18
4.920E+03  1.009E-29  1.317E-18
4.875E+03  1.048E-29  1.355E-18
4.831E+03  1.087E-29  1.393E-18
4.786E+03  1.128E-29  1.432E-18
4.742E+03  1.171E-29  1.473E-18
4.699E+03  1.215E-29  1.515E-18
4.656E+03  1.261E-29  1.558E-18
4.613E+03  1.309E-29  1.602E-18
4.571E+03  1.359E-29  1.648E-18
4.529E+03  1.411E-29  1.695E-18
4.487E+03  1.464E-29  1.743E-18
4.446E+03  1.520E-29  1.793E-18
4.406E+03  1.578E-29  1.844E-18
4.365E+03  1.638E-29  1.896E-18
4.325E+03  1.700E-29  1.951E-18
4.285E+03  1.765E-29  2.006E-18
4.246E+03  1.832E-29  2.064E-18
4.207E+03  1.902E-29  2.123E-18
4.169E+03  1.975E-29  2.184E-18
4.130E+03  2.050E-29  2.246E-18
4.093E+03  2.129E-29  2.311E-18
4.055E+03  2.210E-29  2.377E-18
4.018E+03  2.295E-29  2.445E-18
3.981E+03  2.382E-29  2.516E-18
3.945E+03  2.473E-29  2.588E-18
3.908E+03  2.568E-29  2.662E-18
3.873E+03  2.666E-29  2.739E-18
3.837E+03  2.769E-29  2.818E-18
3.802E+03  2.875E-29  2.899E-18
3.767E+03  2.985E-29  2.983E-18
3.733E+03  3.100E-29  3.069E-18
3.698E+03  3.219E-29  3.158E-18
3.664E+03  3.343E-29  3.249E-18
3.631E+03  3.471E-29  3.343E-18
3.597E+03  3.605E-29  3.440E-18
3.565E+03  3.744E-29  3.540E-18
3.532E+03  3.888E-29  3.643E-18
3.499E+03  4.038E-29  3.748E-18
3.467E+03  4.194E-29  3.857E-18
3.436E+03  4.356E-29  3.970E-18
3.404E+03  4.524E-29  4.085E-18
3.373E+03  4.699E-29  4.204E-18
3.342E+03  4.881E-29  4.327E-18
3.311E+03  5.070E-29  4.453E-18
3.281E+03  5.267E-29  4.584E-18
3.251E+03  5.471E-29  4.718E-18
3.221E+03  5.683E-29  4.856E-18
3.192E+03  5.904E-29  4.998E-18
3.162E+03  6.133E-29  5.145E-18
3.133E+03  6.372E-29  5.296E-18
3.105E+03  6.619E-29  5.451E-18
3.076E+03  6.877E-29  5.611E-18
3.048E+03  7.145E-29  5.776E-18
3.020E+03  7.423E-29  5.946E-18
2.992E+03  7.712E-29  6.121E-18
2.965E+03  8.012E-29  6.301E-18
2.938E+03  8.324E-29  6.486E-18
2.911E+03  8.648E-29  6.677E-18
2.884E+03  8.984E-29  6.873E-18
2.858E+03  9.335E-29  7.076E-18
2.831E+03  9.699E-29  7.284E-18
2.805E+03  1.008E-28  7.499E-18
2.780E+03  1.047E-28  7.721E-18
2.754E+03  1.088E-28  7.949E-18
2.729E+03  1.131E-28  8.184E-18
2.704E+03  1.175E-28  8.426E-18
2.679E+03  1.221E-28  8.676E-18
2.655E+03  1.269E-28  8.933E-18
2.630E+03  1.318E-28  9.198E-18
2.606E+03  1.370E-28  9.471E-18
2.582E+03  1.424E-28  9.752E-18
2.559E+03  1.480E-28  1.004E-17
2.535E+03  1.538E-28  1.034E-17
2.512E+03  1.598E-28  1.065E-17
2.489E+03  1.661E-28  1.097E-17
2.466E+03  1.726E-28  1.129E-17
2.443E+03  1.794E-28  1.163E-17
2.421E+03  1.865E-28  1.198E-17
2.399E+03  1.939E-28  1.234E-17
2.377E+03  2.015E-28  1.270E-17
2.355E+03  2.094E-28  1.308E-17
2.333E+03  2.177E-28  1.348E-17
2.312E+03  2.263E-28  1.388E-17
2.291E+03  2.352E-28  1.430E-17
2.270E+03  2.445E-28  1.472E-17
2.249E+03  2.542E-28  1.517E-17
2.228E+03  2.643E-28  1.562E-17
2.208E+03  2.747E-28  1.609E-17
2.188E+03  2.856E-28  1.657E-17
2.168E+03  2.969E-28  1.707E-17
2.148E+03  3.087E-28  1.759E-17
2.128E+03  3.209E-28  1.812E-17
2.109E+03  3.336E-28  1.866E-17
2.089E+03  3.469E-28  1.922E-17
2.070E+03  3.606E-28  1.980E-17
2.051E+03  3.749E-28  2.040E-17
2.032E+03  3.898E-28  2.101E-17
2.014E+03  4.053E-28  2.165E-17
1.995E+03  4.214E-28  2.230E-17
1.977E+03  4.381E-28  2.298E-17
1.959E+03  4.555E-28  2.367E-17
1.941E+03  4.736E-28  2.438E-17
1.923E+03  4.924E-28  2.512E-17
1.905E+03  5.120E-28  2.588E-17
1.888E+03  5.324E-28  2.666E-17
1.871E+03  5.536E-28  2.747E-17
1.854E+03  5.756E-28  2.830E-17
1.837E+03  5.985E-28  2.916E-17
1.820E+03  6.224E-28  3.004E-17
1.803E+03  6.471E-28  3.095E-17
1.786E+03  6.729E-28  3.189E-17
1.770E+03  6.997E-28  3.286E-17
1.754E+03  7.276E-28  3.385E-17
1.738E+03  7.566E-28  3.488E-17
1.722E+03  7.868E-28  3.594E-17
1.706E+03  8.182E-28  3.703E-17
1.690E+03  8.508E-28  3.815E-17
1.675E+03  8.848E-28  3.931E-17
1.660E+03  9.201E-28  4.050E-17
1.644E+03  9.568E-28  4.173E-17
1.629E+03  9.950E-28  4.300E-17
1.614E+03  1.035E-27  4.431E-17
1.600E+03  1.076E-27  4.565E-17
1.585E+03  1.119E-27  4.704E-17
1.570E+03  1.164E-27  4.847E-17
1.556E+03  1.210E-27  4.994E-17
1.542E+03  1.258E-27  5.146E-17
1.528E+03  1.309E-27  5.302E-17
1.514E+03  1.361E-27  5.463E-17
1.500E+03  1.415E-27  5.629E-17
1.486E+03  1.472E-27  5.801E-17
1.472E+03  1.530E-27  5.977E-17
1.459E+03  1.592E-27  6.159E-17
1.445E+03  1.655E-27  6.346E-17
1.432E+03  1.721E-27  6.539E-17
1.419E+03  1.790E-27  6.738E-17
1.406E+03  1.862E-27  6.943E-17
1.393E+03  1.936E-27  7.154E-17
1.380E+03  2.013E-27  7.372E-17
1.368E+03  2.094E-27  7.596E-17
1.355E+03  2.177E-27  7.827E-17
1.343E+03  2.264E-27  8.065E-17
1.330E+03  2.355E-27  8.310E-17
1.318E+03  2.449E-27  8.563E-17
1.306E+03  2.547E-27  8.823E-17
1.294E+03  2.648E-27  9.091E-17
1.282E+03  2.754E-27  9.367E-17
1.271E+03  2.864E-27  9.652E-17
1.259E+03  2.978E-27  9.945E-17
1.247E+03  3.097E-27  1.025E-16
1.236E+03  3.220E-27  1.056E-16
1.225E+03  3.349E-27  1.088E-16
1.213E+03  3.482E-27  1.121E-16
1.202E+03  3.621E-27  1.155E-16
1.191E+03  3.765E-27  1.190E-16
1.180E+03  3.915E-27  1.226E-16
1.169E+03  4.070E-27  1.263E-16
1.159E+03  4.232E-27  1.301E-16
1.148E+03  4.401E-27  1.340E-16
1.138E+03  4.576E-27  1.381E-16
1.127E+03  4.757E-27  1.422E-16
1.117E+03  4.946E-27  1.465E-16
1.107E+03  5.143E-27  1.510E-16
1.096E+03  5.347E-27  1.555E-16
1.086E+03  5.559E-27  1.602E-16
1.076E+03  5.779E-27  1.650E-16
1.067E+03  6.008E-27  1.700E-16
1.057E+03  6.246E-27  1.751E-16
1.047E+03  6.493E-27  1.804E-16
1.038E+03  6.750E-27  1.858E-16
1.028E+03  7.017E-27  1.914E-16
1.019E+03  7.294E-27  1.971E-16
1.009E+03  7.582E-27  2.030E-16
1.000E+03  7.882E-27  2.091E-16
9.908E+02  8.193E-27  2.153E-16
9.817E+02  8.516E-27  2.218E-16
9.727E+02  8.852E-27  2.284E-16
9.638E+02  9.201E-27  2.352E-16
9.550E+02  9.564E-27  2.423E-16
9.462E+02  9.940E-27  2.495E-16
9.376E+02  1.033E-26  2.569E-16
9.290E+02  1.074E-26  2.646E-16
9.204E+02  1.116E-26  2.725E-16
9.120E+02  1.160E-26  2.806E-16
9.036E+02  1.205E-26  2.889E-16
8.954E+02  1.252E-26  2.975E-16
8.872E+02  1.301E-26  3.063E-16
8.790E+02  1.352E-26  3.153E-16
8.710E+02  1.405E-26  3.246E-16
8.630E+02  1.460E-26  3.342E-16
8.551E+02  1.517E-26  3.441E-16
8.472E+02  1.576E-26  3.542E-16
8.395E+02  1.637E-26  3.646E-16
8.318E+02  1.701E-26  3.753E-16
8.241E+02  1.767E-26  3.863E-16
8.166E+02  1.836E-26  3.976E-16
8.091E+02  1.907E-26  4.092E-16
8.017E+02  1.980E-26  4.211E-16
7.943E+02  2.057E-26  4.334E-16
7.870E+02  2.136E-26  4.460E-16
7.798E+02  2.219E-26  4.590E-16
7.727E+02  2.304E-26  4.723E-16
7.656E+02  2.393E-26  4.860E-16
7.586E+02  2.485E-26  5.000E-16
7.516E+02  2.581E-26  5.145E-16
7.447E+02  2.680E-26  5.294E-16
7.379E+02  2.783E-26  5.447E-16
7.311E+02  2.890E-26  5.604E-16
7.244E+02  3.001E-26  5.766E-16
7.178E+02  3.116E-26  5.933E-16
7.112E+02  3.235E-26  6.104E-16
7.047E+02  3.359E-26  6.279E-16
6.982E+02  3.488E-26  6.460E-16
6.918E+02  3.621E-26  6.646E-16
6.855E+02  3.760E-26  6.837E-16
6.792E+02  3.904E-26  7.033E-16
6.730E+02  4.052E-26  7.234E-16
6.668E+02  4.206E-26  7.440E-16
6.607E+02  4.367E-26  7.653E-16
6.546E+02  4.533E-26  7.871E-16
6.486E+02  4.706E-26  8.097E-16
6.427E+02  4.885E-26  8.328E-16
6.368E+02  5.071E-26  8.567E-16
6.310E+02  5.265E-26  8.811E-16
6.252E+02  5.465E-26  9.063E-16
6.194E+02  5.673E-26  9.321E-16
6.138E+02  5.888E-26  9.587E-16
6.081E+02  6.112E-26  9.860E-16
6.026E+02  6.344E-26  1.014E-15
5.970E+02  6.585E-26  1.043E-15
5.916E+02  6.834E-26  1.072E-15
5.861E+02  7.093E-26  1.103E-15
5.808E+02  7.362E-26  1.134E-15
5.754E+02  7.640E-26  1.166E-15
5.702E+02  7.929E-26  1.199E-15
5.649E+02  8.228E-26  1.233E-15
5.598E+02  8.539E-26  1.268E-15
5.546E+02  8.861E-26  1.304E-15
5.495E+02  9.195E-26  1.340E-15
5.445E+02  9.541E-26  1.378E-15
5.395E+02  9.900E-26  1.417E-15
5.346E+02  1.027E-25  1.457E-15
5.297E+02  1.066E-25  1.497E-15
5.248E+02  1.106E-25  1.539E-15
5.200E+02  1.147E-25  1.583E-15
5.152E+02  1.190E-25  1.627E-15
5.105E+02  1.235E-25  1.672E-15
5.058E+02  1.281E-25  1.719E-15
5.012E+02  1.329E-25  1.767E-15
4.966E+02  1.378E-25  1.816E-15
4.920E+02  1.430E-25  1.866E-15
4.875E+02  1.483E-25  1.918E-15
4.831E+02  1.538E-25  1.971E-15
4.786E+02  1.595E-25  2.025E-15
4.742E+02  1.654E-25  2.081E-15
4.699E+02  1.716E-25  2.138E-15
4.656E+02  1.779E-25  2.197E-15
4.613E+02  1.845E-25  2.258E-15
4.571E+02  1.913E-25  2.319E-15
4.529E+02  1.983E-25  2.383E-15
4.487E+02  2.056E-25  2.448E-15
4.446E+02  2.132E-25  2.515E-15
4.406E+02  2.210E-25  2.583E-15
4.365E+02  2.291E-25  2.653E-15
4.325E+02  2.375E-25  2.725E-15
4.285E+02  2.462E-25  2.798E-15
4.246E+02  2.551E-25  2.874E-15
4.207E+02  2.644E-25  2.951E-15
4.169E+02  2.741E-25  3.030E-15
4.130E+02  2.840E-25  3.112E-15
4.093E+02  2.943E-25  3.195E-15
4.055E+02  3.050E-25  3.280E-15
4.018E+02  3.160E-25  3.368E-15
3.981E+02  3.274E-25  3.457E-15
3.945E+02  3.392E-25  3.549E-15
3.908E+02  3.514E-25  3.643E-15
3.873E+02  3.640E-25  3.739E-15
3.837E+02  3.770E-25  3.838E-15
3.802E+02  3.905E-25  3.938E-15
3.767E+02  4.045E-25  4.042E-15
3.733E+02  4.189E-25  4.147E-15
3.698E+02  4.338E-25  4.255E-15
3.664E+02  4.492E-25  4.366E-15
3.631E+02  4.651E-25  4.479E-15
3.597E+02  4.815E-25  4.595E-15
3.565E+02  4.985E-25  4.713E-15
3.532E+02  5.161E-25  4.835E-15
3.499E+02  5.342E-25  4.959E-15
3.467E+02  5.529E-25  5.085E-15
3.436E+02  5.722E-25  5.215E-15
3.404E+02  5.922E-25  5.347E-15
3.373E+02  6.128E-25  5.482E-15
3.342E+02  6.340E-25  5.620E-15
3.311E+02  6.560E-25  5.762E-15
3.281E+02  6.786E-25  5.906E-15
3.251E+02  7.020E-25  6.053E-15
3.221E+02  7.261E-25  6.204E-15
3.192E+02  7.509E-25  6.357E-15
3.162E+02  7.766E-25  6.514E-15
3.133E+02  8.030E-25  6.674E-15
3.105E+02  8.303E-25  6.837E-15
3.076E+02  8.584E-25  7.004E-15
3.048E+02  8.873E-25  7.174E-15
3.020E+02  9.172E-25  7.347E-15
2.992E+02  9.480E-25  7.524E-15
2.965E+02  9.796E-25  7.704E-15
2.938E+02  1.012E-24  7.888E-15
2.911E+02  1.046E-24  8.075E-15
2.884E+02  1.081E-24  8.266E-15
2.858E+02  1.116E-24  8.461E-15
2.831E+02  1.153E-24  8.659E-15
2.805E+02  1.191E-24  8.861E-15
2.780E+02  1.230E-24  9.066E-15
2.754E+02  1.270E-24  9.276E-15
2.729E+02  1.311E-24  9.490E-15
2.704E+02  1.353E-24  9.707E-15
2.679E+02  1.397E-24  9.929E-15
2.655E+02  1.442E-24  1.016E-14
2.630E+02  1.488E-24  1.039E-14
2.606E+02  1.536E-24  1.062E-14
2.582E+02  1.585E-24  1.086E-14
2.559E+02  1.635E-24  1.110E-14
2.535E+02  1.686E-24  1.134E-14
2.512E+02  1.739E-24  1.159E-14
2.489E+02  1.792E-24  1.183E-14
2.466E+02  1.845E-24  1.207E-14
2.443E+02  1.900E-24  1.231E-14
2.421E+02  1.955E-24  1.256E-14
2.399E+02  2.012E-24  1.280E-14
2.377E+02  2.069E-24  1.304E-14
2.355E+02  2.127E-24  1.329E-14
2.333E+02  2.187E-24  1.354E-14
2.312E+02  2.248E-24  1.379E-14
2.291E+02  2.310E-24  1.404E-14
2.270E+02  2.374E-24  1.429E-14
2.249E+02  2.439E-24  1.455E-14
2.228E+02  2.505E-24  1.481E-14
2.208E+02  2.573E-24  1.507E-14
2.188E+02  2.642E-24  1.533E-14
2.168E+02  2.713E-24  1.560E-14
2.148E+02  2.785E-24  1.587E-14
2.128E+02  2.859E-24  1.614E-14
2.109E+02  2.934E-24  1.641E-14
2.089E+02  3.010E-24  1.668E-14
2.070E+02  3.088E-24  1.696E-14
2.051E+02  3.167E-24  1.723E-14
2.032E+02  3.248E-24  1.751E-14
2.014E+02  3.331E-24  1.779E-14
1.995E+02  3.415E-24  1.807E-14
1.977E+02  3.500E-24  1.836E-14
1.959E+02  3.587E-24  1.864E-14
1.941E+02  3.676E-24  1.892E-14
1.923E+02  3.766E-24  1.921E-14
1.905E+02  3.858E-24  1.950E-14
1.888E+02  3.951E-24  1.979E-14
1.871E+02  4.046E-24  2.008E-14
1.854E+02  4.143E-24  2.037E-14
1.837E+02  4.241E-24  2.066E-14
1.820E+02  4.341E-24  2.096E-14
1.803E+02  4.443E-24  2.125E-14
1.786E+02  4.547E-24  2.155E-14
1.770E+02  4.652E-24  2.184E-14
1.754E+02  4.759E-24  2.214E-14
1.738E+02  4.868E-24  2.244E-14
1.722E+02  4.979E-24  2.274E-14
1.706E+02  5.092E-24  2.304E-14
1.690E+02  5.206E-24  2.335E-14
1.675E+02  5.323E-24  2.365E-14
1.660E+02  5.442E-24  2.396E-14
1.644E+02  5.563E-24  2.427E-14
1.629E+02  5.686E-24  2.458E-14
1.614E+02  5.812E-24  2.489E-14
1.600E+02  5.940E-24  2.520E-14
1.585E+02  6.071E-24  2.552E-14
1.570E+02  6.204E-24  2.584E-14
1.556E+02  6.341E-24  2.617E-14
1.542E+02  6.480E-24  2.650E-14
1.528E+02  6.621E-24  2.683E-14
1.514E+02  6.766E-24  2.717E-14
1.500E+02  6.914E-24  2.750E-14
1.486E+02  7.064E-24  2.784E-14
1.472E+02  7.217E-24  2.818E-14
1.459E+02  7.370E-24  2.852E-14
1.445E+02  7.523E-24  2.885E-14
1.432E+02  7.675E-24  2.916E-14
1.419E+02  7.822E-24  2.944E-14
1.406E+02  7.961E-24  2.969E-14
1.393E+02  8.092E-24  2.990E-14
1.380E+02  8.213E-24  3.007E-14
1.368E+02  8.323E-24  3.020E-14
1.355E+02  8.425E-24  3.029E-14
1.343E+02  8.521E-24  3.035E-14
1.330E+02  8.614E-24  3.040E-14
1.318E+02  8.705E-24  3.044E-14
1.306E+02  8.796E-24  3.048E-14
1.294E+02  8.889E-24  3.051E-14
1.282E+02  8.983E-24  3.056E-14
1.271E+02  9.079E-24  3.060E-14
1.259E+02  9.178E-24  3.065E-14
1.247E+02  9.278E-24  3.070E-14
1.236E+02  9.381E-24  3.076E-14
1.225E+02  9.487E-24  3.082E-14
1.213E+02  9.594E-24  3.088E-14
1.202E+02  9.704E-24  3.095E-14
1.191E+02  9.815E-24  3.101E-14
1.180E+02  9.927E-24  3.108E-14
1.169E+02  1.004E-23  3.114E-14
1.159E+02  1.015E-23  3.121E-14
1.148E+02  1.027E-23  3.127E-14
1.138E+02  1.039E-23  3.134E-14
1.127E+02  1.050E-23  3.140E-14
1.117E+02  1.062E-23  3.147E-14
1.107E+02  1.074E-23  3.153E-14
1.096E+02  1.086E-23  3.159E-14
1.086E+02  1.098E-23  3.165E-14
1.076E+02  1.110E-23  3.170E-14
1.067E+02  1.122E-23  3.176E-14
1.057E+02  1.135E-23  3.181E-14
1.047E+02  1.147E-23  3.186E-14
1.038E+02  1.159E-23  3.190E-14
1.028E+02  1.171E-23  3.194E-14
1.019E+02  1.184E-23  3.198E-14
1.009E+02  1.196E-23  3.201E-14
1.000E+02  1.208E-23  3.204E-14
9.908E+01  1.220E-23  3.207E-14
9.817E+01  1.232E-23  3.209E-14
9.727E+01  1.244E-23  3.210E-14
9.638E+01  1.256E-23  3.211E-14
9.550E+01  1.268E-23  3.212E-14
9.462E+01  1.280E-23  3.212E-14
9.376E+01  1.291E-23  3.212E-14
9.290E+01  1.303E-23  3.211E-14
9.204E+01  1.315E-23  3.210E-14
9.120E+01  1.326E-23  3.208E-14
9.036E+01  1.337E-23  3.206E-14
8.954E+01  1.349E-23  3.204E-14
8.872E+01  1.360E-23  3.201E-14
8.790E+01  1.371E-23  3.198E-14
8.710E+01  1.383E-23  3.194E-14
8.630E+01  1.394E-23  3.191E-14
8.551E+01  1.405E-23  3.187E-14
8.472E+01  1.416E-23  3.182E-14
8.395E+01  1.427E-23  3.177E-14
8.318E+01  1.438E-23  3.172E-14
8.241E+01  1.449E-23  3.167E-14
8.166E+01  1.460E-23  3.161E-14
8.091E+01  1.470E-23  3.156E-14
8.017E+01  1.481E-23  3.149E-14
7.943E+01  1.492E-23  3.143E-14
7.870E+01  1.502E-23  3.136E-14
7.798E+01  1.513E-23  3.129E-14
7.727E+01  1.523E-23  3.122E-14
7.656E+01  1.533E-23  3.114E-14
7.586E+01  1.544E-23  3.106E-14
7.516E+01  1.554E-23  3.098E-14
7.447E+01  1.564E-23  3.090E-14
7.379E+01  1.574E-23  3.081E-14
7.311E+01  1.584E-23  3.073E-14
7.244E+01  1.594E-23  3.064E-14
7.178E+01  1.604E-23  3.055E-14
7.112E+01  1.614E-23  3.045E-14
7.047E+01  1.624E-23  3.036E-14
6.982E+01  1.634E-23  3.027E-14
6.918E+01  1.644E-23  3.018E-14
6.855E+01  1.654E-23  3.008E-14
6.792E+01  1.664E-23  2.998E-14
6.730E+01  1.674E-23  2.989E-14
6.668E+01  1.684E-23  2.979E-14
6.607E+01  1.694E-23  2.969E-14
6.546E+01  1.704E-23  2.960E-14
6.486E+01  1.714E-23  2.950E-14
