# 1: Wavelength [micron]
# 2: Energy [keV]
# 3: exp(-tau)
# Using HeI ratio = 0.1 and HeII ratio = 0.01
# Normalized to nH = 1e+20
9.999999999999999547e-07 1.239841984332002767e+03 1.000000000000000000e+00
1.047390657217956835e-06 1.183743597279384176e+03 1.000000000000000000e+00
1.097027188827465838e-06 1.130183460318045036e+03 1.000000000000000000e+00
1.149016028291967220e-06 1.079046726767641076e+03 1.000000000000000000e+00
1.203468653026690114e-06 1.030223746346724283e+03 1.000000000000000000e+00
1.260501823434834303e-06 9.836098300544031190e+02 1.000000000000000000e+00
1.320237833271846750e-06 9.391050256902537967e+02 1.000000000000000000e+00
1.382804771874611033e-06 8.966139035311545058e+02 1.000000000000000000e+00
1.448336798817875786e-06 8.560453517054559143e+02 1.000000000000000000e+00
1.516974431586809752e-06 8.173123808257488463e+02 1.000000000000000000e+00
1.588864846882545125e-06 7.803319374612964339e+02 1.000000000000000000e+00
1.664162196206817460e-06 7.450247260501514575e+02 1.000000000000000000e+00
1.743027936402337039e-06 7.113150388691269654e+02 1.000000000000000000e+00
1.825631175857706671e-06 6.791305936970032917e+02 1.000000000000000000e+00
1.912149037119194669e-06 6.484023788228995500e+02 1.000000000000000000e+00
2.002767036686956824e-06 6.190645050674440881e+02 1.000000000000000000e+00
2.097679482810016073e-06 5.910540644994683817e+02 1.000000000000000000e+00
2.197089892133006481e-06 5.643109955452590611e+02 1.000000000000000000e+00
2.301211426088119625e-06 5.387779542011215881e+02 1.000000000000000000e+00
2.410267347967907362e-06 5.144001910731236649e+02 1.000000000000000000e+00
2.524491501659093821e-06 4.911254339803400057e+02 1.000000000000000000e+00
2.644128813063865049e-06 4.689037758698846119e+02 1.000000000000000000e+00
2.769435815283898036e-06 4.476875678033740655e+02 1.000000000000000000e+00
2.900681198693156081e-06 4.274313167853774189e+02 1.000000000000000000e+00
3.038146387078995564e-06 4.080915882147601224e+02 1.000000000000000000e+00
3.182126141087030363e-06 3.896269127497461113e+02 1.000000000000000000e+00
3.332929190263592524e-06 3.719976973870083157e+02 1.000000000000000000e+00
3.490878895051097366e-06 3.551661405641098668e+02 1.000000000000000000e+00
3.656313940155864015e-06 3.390961511032473936e+02 1.000000000000000000e+00
3.829589060775027795e-06 3.237532708225056695e+02 1.000000000000000000e+00
4.011075803239862807e-06 3.091046006486703845e+02 1.000000000000000000e+00
4.201163321706444050e-06 2.951187300731738787e+02 1.000000000000000000e+00
4.400259212602086997e-06 2.817656697998988875e+02 1.000000000000000000e+00
4.608790388616669734e-06 2.690167874404332906e+02 1.000000000000000000e+00
4.827203994113026392e-06 2.568447461188797547e+02 1.000000000000000000e+00
5.055968363919189216e-06 2.452234458545791824e+02 1.000000000000000000e+00
5.295574027558517936e-06 2.341279675970504570e+02 1.000000000000000000e+00
5.546534761070869932e-06 2.235345197931521284e+02 1.000000000000000000e+00
5.809388688680261756e-06 2.134203873718874434e+02 1.000000000000000000e+00
6.084699436671384171e-06 2.037638830374593226e+02 1.000000000000000000e+00
6.373057341948986243e-06 1.945443007661434933e+02 1.000000000000000000e+00
6.675080717871674069e-06 1.857418714072601915e+02 1.000000000000000000e+00
6.991417180074524236e-06 1.773377202930388705e+02 1.000000000000000000e+00
7.322745035123170652e-06 1.693138267664877219e+02 1.000000000000000000e+00
7.669774734977204828e-06 1.616529855404791647e+02 1.000000000000000000e+00
8.033250400381455663e-06 1.543387698051998029e+02 1.000000000000000000e+00
8.413951416451948174e-06 1.473554960048518581e+02 1.000000000000000000e+00
8.812694103877582696e-06 1.406881902080854729e+02 1.000000000000000000e+00
9.230333469321154791e-06 1.343225560000473990e+02 1.000000000000000000e+00
9.667765038773189058e-06 1.282449438271965789e+02 1.000000000000000000e+00
1.012592677778943550e-05 1.224423217291592181e+02 1.000000000000000000e+00
1.060580110272980796e-05 1.169022473948603391e+02 1.000000000000000000e+00
1.110841698731110432e-05 1.116128414830165525e+02 1.000000000000000000e+00
1.163485216899089419e-05 1.065627621497777682e+02 1.000000000000000000e+00
1.218623545991316873e-05 1.017411807289038705e+02 1.000000000000000000e+00
1.276374916737122535e-05 9.713775851232556136e+01 1.000000000000000000e+00
1.336863162897809706e-05 9.274262458129953757e+01 1.000000000000000000e+00
1.400217986798016395e-05 8.854635464062580752e+01 1.000000000000000000e+00
1.466575237440778842e-05 8.453995081054054594e+01 1.000000000000000000e+00
1.536077201802678603e-05 8.071482233295135700e+01 1.000000000000000000e+00
1.608872909933627674e-05 7.706276715064777250e+01 1.000000000000000000e+00
1.685118454515552612e-05 7.357595431998514357e+01 1.000000000000000000e+00
1.764977325565152255e-05 7.024690721933215798e+01 1.000000000000000000e+00
1.848620760998476823e-05 6.706848751727419256e+01 1.000000000000000000e+00
1.936228113808954247e-05 6.403387986619931382e+01 1.000000000000000000e+00
2.027987236646249474e-05 6.113657728844343353e+01 1.000000000000000000e+00
2.124094884620543656e-05 5.837036722366066499e+01 1.000000000000000000e+00
2.224757137196011337e-05 5.572931820749865750e+01 1.000000000000000000e+00
2.330189840078075321e-05 5.320776715301704485e+01 1.000000000000000000e+00
2.440619068041981437e-05 5.080030720757590501e+01 1.000000000000000000e+00
2.556281609695168155e-05 4.850177615915530538e+01 1.000000000000000000e+00
2.677425475212804492e-05 4.630724536724812879e+01 1.000000000000000000e+00
2.804310428135239856e-05 4.421200919459015211e+01 1.000000000000000000e+00
2.937208542367738805e-05 4.221157491706539844e+01 1.000000000000000000e+00
3.076404785576749760e-05 4.030165309015286113e+01 1.000000000000000000e+00
3.222197630233699099e-05 3.847814835125676325e+01 1.000000000000000000e+00
3.374899693616617753e-05 3.673715063819749815e+01 1.000000000000000000e+00
3.534838408141790275e-05 3.507492680503514748e+01 1.000000000000000000e+00
3.702356723462906028e-05 3.348791261724633728e+01 1.000000000000000000e+00
3.877813841843142777e-05 3.197270510909054053e+01 1.000000000000000000e+00
4.061585988376979588e-05 3.052605528677842273e+01 1.000000000000000000e+00
4.254067217713409902e-05 2.914486116179485720e+01 1.000000000000000000e+00
4.455670259010222512e-05 2.782616109943960936e+01 1.000000000000000000e+00
4.666827400931220968e-05 2.656712746832256755e+01 1.000000000000000000e+00
4.887991418584121498e-05 2.536506057719596186e+01 1.000000000000000000e+00
5.119636544386566858e-05 2.421738288612360890e+01 1.000000000000000000e+00
5.362259484942115406e-05 2.312163347957389092e+01 1.000000000000000000e+00
5.616380486106745324e-05 2.207546278958491115e+01 1.000000000000000000e+00
5.882544448529464676e-05 2.107662755768793161e+01 1.000000000000000000e+00
6.161322096059119481e-05 2.012298602478557896e+01 1.000000000000000000e+00
6.453311199522880571e-05 1.921249333867037379e+01 1.000000000000000000e+00
6.759137858500271329e-05 1.834319716933693201e+01 1.000000000000000000e+00
7.079457843841373125e-05 1.751323352268531863e+01 1.000000000000000000e+00
7.414958003807850604e-05 1.672082274363925691e+01 1.000000000000000000e+00
7.766357736851854643e-05 1.596426570010900470e+01 1.000000000000000000e+00
8.134410534191028339e-05 1.524194013961585270e+01 1.000000000000000000e+00
8.519905595487030326e-05 1.455229721076655380e+01 1.000000000000000000e+00
8.923669521092109579e-05 1.389385814211849457e+01 1.000000000000000000e+00
9.346568084492514362e-05 1.326521107131400790e+01 1.000000000000000000e+00
9.789508088749015720e-05 1.266500801768518514e+01 1.000000000000000000e+00
1.025343931091533611e-04 1.209196199183745435e+01 1.000000000000000000e+00
1.073935653860404822e-04 1.154484423601381948e+01 9.999334735879671365e-01
1.124830170306646935e-04 1.102248158932296107e+01 9.999243794431253995e-01
1.178136611336066470e-04 1.052375397218119879e+01 9.999140136910585897e-01
1.233969279639819238e-04 1.004759198457434444e+01 9.999021968068327881e-01
1.292447894788720448e-04 9.592974612989582539e+00 9.998887236573045234e-01
1.353697849942722600e-04 9.158927041100513478e+00 9.998733598050666416e-01
1.417850480726045030e-04 8.744518559510670030e+00 9.998558372794419391e-01
1.485043346844448309e-04 8.348860570073787457e+00 9.998358497380995802e-01
1.555420527048562629e-04 7.971104680511220231e+00 9.998183313927577753e-01
1.629132928075696575e-04 7.610440885241220421e+00 9.997935664618626816e-01
1.706338608232618249e-04 7.266095828519048005e+00 9.997653597847129259e-01
1.787203116313137682e-04 6.937331146163739248e+00 9.998500297766578226e-01
1.871899846577197940e-04 6.623441882315849405e+00 9.998283196177710774e-01
1.960610410552685924e-04 6.323754977831100632e+00 9.998034192249301011e-01
2.053525026457146099e-04 6.037627827068881459e+00 9.997748605161282942e-01
2.150842927074474620e-04 5.764446899980772976e+00 9.997421070316888647e-01
2.252772786961130538e-04 5.503626426544697914e+00 9.997045440175474917e-01
2.359533169897946924e-04 5.254607140723635439e+00 9.996614670790481272e-01
2.471352997546982203e-04 5.016855081255677362e+00 9.996120691986286610e-01
2.588472040318301514e-04 4.789860446704074626e+00 9.995554258804618675e-01
2.711141431499294440e-04 4.573136502312071805e+00 9.994904781502238489e-01
2.839624205748881376e-04 4.366218536318697829e+00 9.994160130979790058e-01
2.974195863111339677e-04 4.168662863497463178e+00 9.993306416058750363e-01
3.115144959759117479e-04 3.980045873781343779e+00 9.992479945967499555e-01
3.262773726731307790e-04 3.799963123934106068e+00 9.991430791847191184e-01
3.417398717994590417e-04 3.628028470320170840e+00 9.990234210760416955e-01
3.579351489216157423e-04 3.463873240913581508e+00 9.988869392124332114e-01
3.748979308704187912e-04 3.307145444770529963e+00 9.987312576107270079e-01
3.926645902040205101e-04 3.157509017270454521e+00 9.985838008041468816e-01
4.112732232000087455e-04 3.014643099507228641e+00 9.983856792973921923e-01
4.307637315436050663e-04 2.878241350285305256e+00 9.981596736457332142e-01
4.511779078871160521e-04 2.748011289245591904e+00 9.979018393273318965e-01
4.725595254641097782e-04 2.623673669712466516e+00 9.976076694589222082e-01
4.949544319504598075e-04 2.504961879917258383e+00 9.972720133793253616e-01
5.184106477735331286e-04 2.391621371314166300e+00 9.971190134682966777e-01
5.429784690803081838e-04 2.283409112762860182e+00 9.967219569296604798e-01
5.687105755852240631e-04 2.180093069407333939e+00 9.962731709517548273e-01
5.956621435290109998e-04 2.081451705133612773e+00 9.957658986405433232e-01
6.238909639907077795e-04 1.987273507539482065e+00 9.951924719989009294e-01
6.534575668065726803e-04 1.897356534397593331e+00 9.945441823246455870e-01
6.844253503615838280e-04 1.811507980639511128e+00 9.943583029919227378e-01
7.168607175318497367e-04 1.729543764932156558e+00 9.935957175880206771e-01
7.508332180694210402e-04 1.651288134960177567e+00 9.927366748302812738e-01
7.864156977348044477e-04 1.576573290567888419e+00 9.917688112156967106e-01
8.236844544969757365e-04 1.505239023952654742e+00 9.906780856797300361e-01
8.627194021358017273e-04 1.437132376138258616e+00 9.894462113076823995e-01
9.036042415977011723e-04 1.372107308991583619e+00 9.880573397003669101e-01
9.464266404719506431e-04 1.310024392079385924e+00 9.864930973052270513e-01
9.912784209724994321e-04 1.250750503693653037e+00 9.856327949691769952e-01
1.038255756828365683e-03 1.194158545404493399e+00 9.837251640279082165e-01
1.087459379504789178e-03 1.140127169528489359e+00 9.815793065045888000e-01
1.138994794197353876e-03 1.088540518928109213e+00 9.791658698516951809e-01
1.192972506062198049e-03 1.039287978584278349e+00 9.764519481379351218e-01
1.249508257167439990e-03 9.922639384093785431e-01 9.734006840284992190e-01
1.308723274673870155e-03 9.473675667921221955e-01 9.699708384616416712e-01
1.370744530777101436e-03 9.045025943886949582e-01 9.661163297168045005e-01
1.435705014968549848e-03 8.635771076965711446e-01 9.665398453552509483e-01
1.503744019199026050e-03 8.245033519683810930e-01 9.625392300838465642e-01
1.575007436556441400e-03 7.871975430432021081e-01 9.578872939511862139e-01
1.649648074098020775e-03 7.515796876918199310e-01 9.524800149201574362e-01
1.727825980507864461e-03 7.175734120907086844e-01 9.461990633329332434e-01
1.809708789282394800e-03 6.851057980569559280e-01 9.446031414438720297e-01
1.895472078179600423e-03 6.541072266929613965e-01 9.374767924155316123e-01
1.985299745702820504e-03 6.245112291056499343e-01 9.294856559323971812e-01
2.079384405426319780e-03 5.962543438801098938e-01 9.205331717908499245e-01
2.177927799008245492e-03 5.692759810020261435e-01 9.105145770757175905e-01
2.281141228776507272e-03 5.435182919371429611e-01 8.993170318792630402e-01
2.389246010815203585e-03 5.189260455891573365e-01 9.273769641982051448e-01
2.502473949523120137e-03 4.954465098700712167e-01 9.176933124027731870e-01
2.621067834661837403e-03 4.730293386290643221e-01 9.068253058787315579e-01
2.745281961959311710e-03 4.516264636974213209e-01 8.946504159383754651e-01
2.875382678385165428e-03 4.311919918180442957e-01 8.810399622154438948e-01
3.011648953266970585e-03 4.116821062385273566e-01 8.658608376144010244e-01
3.154372976472067606e-03 3.930549727567961837e-01 8.539720766609454339e-01
3.303860784937641838e-03 3.752706500178408233e-01 8.357253400734425686e-01
3.460432918892474962e-03 3.582910038691976551e-01 8.154853236211818679e-01
3.624425109177442390e-03 3.420796255915418138e-01 7.931208575516710546e-01
3.796188997138630165e-03 3.266017538290456601e-01 7.685165243464151530e-01
3.976092888636606655e-03 3.118242000521123658e-01 7.415805127755490389e-01
4.164522543788744431e-03 2.977152773926481366e-01 7.122536466162590063e-01
4.361882004137894973e-03 2.842447326992861845e-01 6.805193658952022329e-01
4.568594459021168772e-03 2.713836816668646623e-01 7.100142955948430812e-01
4.785103152996503240e-03 2.591045469010621050e-01 6.539188809053847473e-01
5.011872336272724625e-03 2.473809987853879955e-01 6.271478550570763755e-01
