Dust emission from Draine & Li (2007): ApJ 657, 810-837
================================================================
         9 = grain model
 4.000E-08 4.000E-01 2.500E-06 = a_01 (cm) , sigma_1 , b_C1/0.92
 2.500E-07 4.000E-01 2.500E-06 = a_02 (cm) , sigma_2 , b_C2/0.92
 2.500E+01 2.500E+01 1.000E+00 = Umin , Umax, beta (dN/dU propto U^{-beta})
 2.500E+01 = <U> 
     mmp83 = radfield
 2.357E-23 = power/H (erg s-1)
 band   nu*P_nu(band) j_nu(band)
 (um)   (erg s-1 H-1)(Jy cm2 sr-1 H-1)
1.270E+00  4.327E-26  1.458E-18 COBE-DIRBE
2.220E+00  5.675E-26  3.342E-18 COBE-DIRBE
3.530E+00  2.343E-25  2.194E-17 COBE-DIRBE
4.880E+00  1.078E-25  1.395E-17 COBE-DIRBE
1.229E+01  1.324E-24  4.317E-16 COBE-DIRBE
2.079E+01  1.790E-24  9.873E-16 COBE-DIRBE
5.599E+01  1.341E-23  1.991E-14 COBE-DIRBE
9.770E+01  1.482E-23  3.840E-14 COBE-DIRBE
1.479E+02  7.540E-24  2.958E-14 COBE-DIRBE
2.479E+02  1.667E-24  1.096E-14 COBE-DIRBE
1.200E+01  1.285E-24  4.092E-16 IRAS
2.500E+01  1.890E-24  1.253E-15 IRAS
6.000E+01  1.411E-23  2.246E-14 IRAS
1.000E+02  1.448E-23  3.841E-14 IRAS
3.550E+00  2.689E-25  2.532E-17 SST-IRAC
4.493E+00  8.439E-26  1.006E-17 SST-IRAC
5.731E+00  5.109E-25  7.766E-17 SST-IRAC
7.872E+00  1.393E-24  2.909E-16 SST-IRAC
2.368E+01  1.718E-24  1.079E-15 SST-MIPS
7.142E+01  1.532E-23  2.903E-14 SST-MIPS
1.559E+02  6.118E-24  2.530E-14 SST-MIPS
1.600E+01  1.382E-24  5.864E-16 SST-IRSPU
2.200E+01  1.771E-24  1.033E-15 SST-IRSPU











lambda    nu*dP/dnu     j_nu
 (um)   (erg s-1 H-1)(Jy cm2 sr-1 H-1)
1.000E+04  3.204E-31  8.498E-20
9.908E+03  3.321E-31  8.728E-20
9.817E+03  3.442E-31  8.964E-20
9.727E+03  3.568E-31  9.206E-20
9.638E+03  3.698E-31  9.455E-20
9.550E+03  3.833E-31  9.710E-20
9.462E+03  3.973E-31  9.972E-20
9.376E+03  4.118E-31  1.024E-19
9.290E+03  4.269E-31  1.052E-19
9.204E+03  4.425E-31  1.080E-19
9.120E+03  4.586E-31  1.109E-19
9.036E+03  4.754E-31  1.139E-19
8.954E+03  4.927E-31  1.170E-19
8.872E+03  5.106E-31  1.201E-19
8.790E+03  5.291E-31  1.234E-19
8.710E+03  5.483E-31  1.267E-19
8.630E+03  5.683E-31  1.301E-19
8.551E+03  5.890E-31  1.336E-19
8.472E+03  6.104E-31  1.372E-19
8.395E+03  6.327E-31  1.409E-19
8.318E+03  6.557E-31  1.447E-19
8.241E+03  6.797E-31  1.486E-19
8.166E+03  7.045E-31  1.526E-19
8.091E+03  7.302E-31  1.567E-19
8.017E+03  7.569E-31  1.610E-19
7.943E+03  7.846E-31  1.653E-19
7.870E+03  8.133E-31  1.698E-19
7.798E+03  8.431E-31  1.744E-19
7.727E+03  8.740E-31  1.791E-19
7.656E+03  9.060E-31  1.840E-19
7.586E+03  9.393E-31  1.890E-19
7.516E+03  9.737E-31  1.941E-19
7.447E+03  1.009E-30  1.994E-19
7.379E+03  1.047E-30  2.049E-19
7.311E+03  1.085E-30  2.104E-19
7.244E+03  1.125E-30  2.162E-19
7.178E+03  1.166E-30  2.221E-19
7.112E+03  1.209E-30  2.282E-19
7.047E+03  1.254E-30  2.344E-19
6.982E+03  1.300E-30  2.408E-19
6.918E+03  1.348E-30  2.474E-19
6.855E+03  1.398E-30  2.541E-19
6.792E+03  1.449E-30  2.611E-19
6.730E+03  1.503E-30  2.682E-19
6.668E+03  1.558E-30  2.756E-19
6.607E+03  1.616E-30  2.832E-19
6.546E+03  1.675E-30  2.909E-19
6.486E+03  1.737E-30  2.989E-19
6.427E+03  1.802E-30  3.071E-19
6.368E+03  1.868E-30  3.156E-19
6.310E+03  1.938E-30  3.243E-19
6.252E+03  2.009E-30  3.332E-19
6.194E+03  2.084E-30  3.424E-19
6.138E+03  2.161E-30  3.519E-19
6.081E+03  2.242E-30  3.616E-19
6.026E+03  2.325E-30  3.716E-19
5.970E+03  2.411E-30  3.819E-19
5.916E+03  2.501E-30  3.925E-19
5.861E+03  2.594E-30  4.034E-19
5.808E+03  2.691E-30  4.145E-19
5.754E+03  2.791E-30  4.261E-19
5.702E+03  2.895E-30  4.379E-19
5.649E+03  3.003E-30  4.501E-19
5.598E+03  3.116E-30  4.626E-19
5.546E+03  3.232E-30  4.755E-19
5.495E+03  3.353E-30  4.887E-19
5.445E+03  3.478E-30  5.024E-19
5.395E+03  3.608E-30  5.164E-19
5.346E+03  3.744E-30  5.308E-19
5.297E+03  3.884E-30  5.457E-19
5.248E+03  4.029E-30  5.609E-19
5.200E+03  4.181E-30  5.766E-19
5.152E+03  4.337E-30  5.928E-19
5.105E+03  4.500E-30  6.094E-19
5.058E+03  4.669E-30  6.265E-19
5.012E+03  4.845E-30  6.441E-19
4.966E+03  5.027E-30  6.622E-19
4.920E+03  5.216E-30  6.808E-19
4.875E+03  5.412E-30  6.999E-19
4.831E+03  5.616E-30  7.196E-19
4.786E+03  5.827E-30  7.398E-19
4.742E+03  6.047E-30  7.607E-19
4.699E+03  6.275E-30  7.821E-19
4.656E+03  6.512E-30  8.042E-19
4.613E+03  6.758E-30  8.269E-19
4.571E+03  7.013E-30  8.503E-19
4.529E+03  7.278E-30  8.744E-19
4.487E+03  7.554E-30  8.991E-19
4.446E+03  7.840E-30  9.246E-19
4.406E+03  8.137E-30  9.508E-19
4.365E+03  8.445E-30  9.778E-19
4.325E+03  8.765E-30  1.006E-18
4.285E+03  9.098E-30  1.034E-18
4.246E+03  9.443E-30  1.064E-18
4.207E+03  9.802E-30  1.094E-18
4.169E+03  1.017E-29  1.125E-18
4.130E+03  1.056E-29  1.157E-18
4.093E+03  1.096E-29  1.190E-18
4.055E+03  1.138E-29  1.224E-18
4.018E+03  1.181E-29  1.259E-18
3.981E+03  1.226E-29  1.295E-18
3.945E+03  1.273E-29  1.332E-18
3.908E+03  1.322E-29  1.370E-18
3.873E+03  1.372E-29  1.409E-18
3.837E+03  1.424E-29  1.450E-18
3.802E+03  1.479E-29  1.491E-18
3.767E+03  1.535E-29  1.534E-18
3.733E+03  1.594E-29  1.578E-18
3.698E+03  1.655E-29  1.624E-18
3.664E+03  1.718E-29  1.670E-18
3.631E+03  1.784E-29  1.718E-18
3.597E+03  1.853E-29  1.768E-18
3.565E+03  1.924E-29  1.819E-18
3.532E+03  1.998E-29  1.871E-18
3.499E+03  2.074E-29  1.926E-18
3.467E+03  2.154E-29  1.981E-18
3.436E+03  2.237E-29  2.039E-18
3.404E+03  2.323E-29  2.098E-18
3.373E+03  2.413E-29  2.159E-18
3.342E+03  2.506E-29  2.221E-18
3.311E+03  2.602E-29  2.286E-18
3.281E+03  2.703E-29  2.352E-18
3.251E+03  2.807E-29  2.421E-18
3.221E+03  2.916E-29  2.491E-18
3.192E+03  3.029E-29  2.564E-18
3.162E+03  3.146E-29  2.639E-18
3.133E+03  3.268E-29  2.716E-18
3.105E+03  3.394E-29  2.795E-18
3.076E+03  3.526E-29  2.877E-18
3.048E+03  3.663E-29  2.961E-18
3.020E+03  3.805E-29  3.048E-18
2.992E+03  3.952E-29  3.137E-18
2.965E+03  4.106E-29  3.229E-18
2.938E+03  4.265E-29  3.323E-18
2.911E+03  4.430E-29  3.420E-18
2.884E+03  4.602E-29  3.521E-18
2.858E+03  4.781E-29  3.624E-18
2.831E+03  4.967E-29  3.730E-18
2.805E+03  5.160E-29  3.840E-18
2.780E+03  5.360E-29  3.953E-18
2.754E+03  5.569E-29  4.069E-18
2.729E+03  5.786E-29  4.189E-18
2.704E+03  6.012E-29  4.312E-18
2.679E+03  6.247E-29  4.439E-18
2.655E+03  6.491E-29  4.570E-18
2.630E+03  6.744E-29  4.705E-18
2.606E+03  7.008E-29  4.845E-18
2.582E+03  7.282E-29  4.988E-18
2.559E+03  7.567E-29  5.136E-18
2.535E+03  7.864E-29  5.288E-18
2.512E+03  8.172E-29  5.445E-18
2.489E+03  8.492E-29  5.607E-18
2.466E+03  8.826E-29  5.773E-18
2.443E+03  9.172E-29  5.945E-18
2.421E+03  9.533E-29  6.122E-18
2.399E+03  9.907E-29  6.304E-18
2.377E+03  1.030E-28  6.492E-18
2.355E+03  1.070E-28  6.686E-18
2.333E+03  1.112E-28  6.885E-18
2.312E+03  1.156E-28  7.091E-18
2.291E+03  1.202E-28  7.303E-18
2.270E+03  1.249E-28  7.521E-18
2.249E+03  1.298E-28  7.747E-18
2.228E+03  1.350E-28  7.979E-18
2.208E+03  1.403E-28  8.218E-18
2.188E+03  1.459E-28  8.464E-18
2.168E+03  1.516E-28  8.718E-18
2.148E+03  1.576E-28  8.980E-18
2.128E+03  1.639E-28  9.250E-18
2.109E+03  1.703E-28  9.528E-18
2.089E+03  1.771E-28  9.815E-18
2.070E+03  1.841E-28  1.011E-17
2.051E+03  1.914E-28  1.041E-17
2.032E+03  1.990E-28  1.073E-17
2.014E+03  2.069E-28  1.105E-17
1.995E+03  2.151E-28  1.139E-17
1.977E+03  2.237E-28  1.173E-17
1.959E+03  2.325E-28  1.208E-17
1.941E+03  2.418E-28  1.245E-17
1.923E+03  2.514E-28  1.282E-17
1.905E+03  2.614E-28  1.321E-17
1.888E+03  2.718E-28  1.361E-17
1.871E+03  2.826E-28  1.402E-17
1.854E+03  2.938E-28  1.445E-17
1.837E+03  3.055E-28  1.488E-17
1.820E+03  3.177E-28  1.534E-17
1.803E+03  3.304E-28  1.580E-17
1.786E+03  3.435E-28  1.628E-17
1.770E+03  3.572E-28  1.677E-17
1.754E+03  3.715E-28  1.728E-17
1.738E+03  3.863E-28  1.781E-17
1.722E+03  4.017E-28  1.835E-17
1.706E+03  4.178E-28  1.891E-17
1.690E+03  4.345E-28  1.948E-17
1.675E+03  4.518E-28  2.007E-17
1.660E+03  4.699E-28  2.069E-17
1.644E+03  4.887E-28  2.132E-17
1.629E+03  5.082E-28  2.196E-17
1.614E+03  5.286E-28  2.263E-17
1.600E+03  5.497E-28  2.332E-17
1.585E+03  5.717E-28  2.403E-17
1.570E+03  5.946E-28  2.477E-17
1.556E+03  6.184E-28  2.552E-17
1.542E+03  6.431E-28  2.630E-17
1.528E+03  6.689E-28  2.710E-17
1.514E+03  6.957E-28  2.793E-17
1.500E+03  7.236E-28  2.878E-17
1.486E+03  7.526E-28  2.966E-17
1.472E+03  7.828E-28  3.057E-17
1.459E+03  8.142E-28  3.151E-17
1.445E+03  8.468E-28  3.247E-17
1.432E+03  8.808E-28  3.346E-17
1.419E+03  9.162E-28  3.449E-17
1.406E+03  9.530E-28  3.554E-17
1.393E+03  9.912E-28  3.663E-17
1.380E+03  1.031E-27  3.775E-17
1.368E+03  1.072E-27  3.891E-17
1.355E+03  1.116E-27  4.010E-17
1.343E+03  1.160E-27  4.133E-17
1.330E+03  1.207E-27  4.260E-17
1.318E+03  1.255E-27  4.390E-17
1.306E+03  1.306E-27  4.525E-17
1.294E+03  1.358E-27  4.663E-17
1.282E+03  1.413E-27  4.806E-17
1.271E+03  1.470E-27  4.954E-17
1.259E+03  1.529E-27  5.105E-17
1.247E+03  1.590E-27  5.262E-17
1.236E+03  1.654E-27  5.423E-17
1.225E+03  1.721E-27  5.589E-17
1.213E+03  1.790E-27  5.761E-17
1.202E+03  1.862E-27  5.937E-17
1.191E+03  1.936E-27  6.119E-17
1.180E+03  2.014E-27  6.306E-17
1.169E+03  2.095E-27  6.499E-17
1.159E+03  2.179E-27  6.698E-17
1.148E+03  2.267E-27  6.904E-17
1.138E+03  2.358E-27  7.115E-17
1.127E+03  2.452E-27  7.333E-17
1.117E+03  2.551E-27  7.557E-17
1.107E+03  2.653E-27  7.788E-17
1.096E+03  2.760E-27  8.026E-17
1.086E+03  2.870E-27  8.272E-17
1.076E+03  2.985E-27  8.525E-17
1.067E+03  3.105E-27  8.785E-17
1.057E+03  3.230E-27  9.053E-17
1.047E+03  3.359E-27  9.330E-17
1.038E+03  3.494E-27  9.615E-17
1.028E+03  3.633E-27  9.908E-17
1.019E+03  3.779E-27  1.021E-16
1.009E+03  3.930E-27  1.052E-16
1.000E+03  4.087E-27  1.084E-16
9.908E+02  4.251E-27  1.117E-16
9.817E+02  4.421E-27  1.151E-16
9.727E+02  4.598E-27  1.186E-16
9.638E+02  4.782E-27  1.223E-16
9.550E+02  4.974E-27  1.260E-16
9.462E+02  5.173E-27  1.298E-16
9.376E+02  5.380E-27  1.338E-16
9.290E+02  5.595E-27  1.379E-16
9.204E+02  5.818E-27  1.421E-16
9.120E+02  6.050E-27  1.464E-16
9.036E+02  6.292E-27  1.508E-16
8.954E+02  6.543E-27  1.554E-16
8.872E+02  6.804E-27  1.601E-16
8.790E+02  7.074E-27  1.650E-16
8.710E+02  7.356E-27  1.699E-16
8.630E+02  7.648E-27  1.751E-16
8.551E+02  7.952E-27  1.804E-16
8.472E+02  8.268E-27  1.858E-16
8.395E+02  8.596E-27  1.914E-16
8.318E+02  8.937E-27  1.972E-16
8.241E+02  9.291E-27  2.031E-16
8.166E+02  9.659E-27  2.092E-16
8.091E+02  1.004E-26  2.155E-16
8.017E+02  1.044E-26  2.220E-16
7.943E+02  1.085E-26  2.286E-16
7.870E+02  1.128E-26  2.355E-16
7.798E+02  1.172E-26  2.425E-16
7.727E+02  1.219E-26  2.498E-16
7.656E+02  1.267E-26  2.572E-16
7.586E+02  1.317E-26  2.649E-16
7.516E+02  1.368E-26  2.728E-16
7.447E+02  1.422E-26  2.810E-16
7.379E+02  1.478E-26  2.894E-16
7.311E+02  1.537E-26  2.980E-16
7.244E+02  1.597E-26  3.069E-16
7.178E+02  1.660E-26  3.161E-16
7.112E+02  1.726E-26  3.256E-16
7.047E+02  1.794E-26  3.353E-16
6.982E+02  1.865E-26  3.454E-16
6.918E+02  1.938E-26  3.557E-16
6.855E+02  2.015E-26  3.663E-16
6.792E+02  2.094E-26  3.773E-16
6.730E+02  2.176E-26  3.885E-16
6.668E+02  2.262E-26  4.001E-16
6.607E+02  2.351E-26  4.120E-16
6.546E+02  2.443E-26  4.243E-16
6.486E+02  2.540E-26  4.370E-16
6.427E+02  2.640E-26  4.501E-16
6.368E+02  2.745E-26  4.636E-16
6.310E+02  2.853E-26  4.775E-16
6.252E+02  2.966E-26  4.919E-16
6.194E+02  3.083E-26  5.066E-16
6.138E+02  3.205E-26  5.218E-16
6.081E+02  3.332E-26  5.375E-16
6.026E+02  3.464E-26  5.537E-16
5.970E+02  3.601E-26  5.703E-16
5.916E+02  3.744E-26  5.874E-16
5.861E+02  3.892E-26  6.051E-16
5.808E+02  4.046E-26  6.233E-16
5.754E+02  4.206E-26  6.420E-16
5.702E+02  4.373E-26  6.613E-16
5.649E+02  4.546E-26  6.812E-16
5.598E+02  4.726E-26  7.017E-16
5.546E+02  4.913E-26  7.228E-16
5.495E+02  5.108E-26  7.446E-16
5.445E+02  5.311E-26  7.670E-16
5.395E+02  5.521E-26  7.901E-16
5.346E+02  5.740E-26  8.139E-16
5.297E+02  5.968E-26  8.385E-16
5.248E+02  6.205E-26  8.637E-16
5.200E+02  6.451E-26  8.898E-16
5.152E+02  6.707E-26  9.166E-16
5.105E+02  6.973E-26  9.442E-16
5.058E+02  7.249E-26  9.727E-16
5.012E+02  7.537E-26  1.002E-15
4.966E+02  7.836E-26  1.032E-15
4.920E+02  8.147E-26  1.063E-15
4.875E+02  8.470E-26  1.095E-15
4.831E+02  8.806E-26  1.128E-15
4.786E+02  9.155E-26  1.162E-15
4.742E+02  9.518E-26  1.197E-15
4.699E+02  9.895E-26  1.233E-15
4.656E+02  1.029E-25  1.270E-15
4.613E+02  1.070E-25  1.309E-15
4.571E+02  1.112E-25  1.348E-15
4.529E+02  1.156E-25  1.389E-15
4.487E+02  1.202E-25  1.430E-15
4.446E+02  1.249E-25  1.473E-15
4.406E+02  1.299E-25  1.518E-15
4.365E+02  1.350E-25  1.563E-15
4.325E+02  1.403E-25  1.610E-15
4.285E+02  1.459E-25  1.659E-15
4.246E+02  1.517E-25  1.708E-15
4.207E+02  1.577E-25  1.760E-15
4.169E+02  1.639E-25  1.812E-15
4.130E+02  1.704E-25  1.867E-15
4.093E+02  1.771E-25  1.923E-15
4.055E+02  1.841E-25  1.980E-15
4.018E+02  1.914E-25  2.040E-15
3.981E+02  1.989E-25  2.101E-15
3.945E+02  2.068E-25  2.163E-15
3.908E+02  2.149E-25  2.228E-15
3.873E+02  2.234E-25  2.295E-15
3.837E+02  2.322E-25  2.364E-15
3.802E+02  2.414E-25  2.434E-15
3.767E+02  2.509E-25  2.507E-15
3.733E+02  2.608E-25  2.582E-15
3.698E+02  2.710E-25  2.659E-15
3.664E+02  2.817E-25  2.738E-15
3.631E+02  2.928E-25  2.819E-15
3.597E+02  3.042E-25  2.903E-15
3.565E+02  3.162E-25  2.990E-15
3.532E+02  3.286E-25  3.078E-15
3.499E+02  3.415E-25  3.170E-15
3.467E+02  3.548E-25  3.264E-15
3.436E+02  3.687E-25  3.360E-15
3.404E+02  3.831E-25  3.460E-15
3.373E+02  3.981E-25  3.562E-15
3.342E+02  4.136E-25  3.667E-15
3.311E+02  4.298E-25  3.775E-15
3.281E+02  4.465E-25  3.886E-15
3.251E+02  4.638E-25  4.000E-15
3.221E+02  4.819E-25  4.117E-15
3.192E+02  5.006E-25  4.238E-15
3.162E+02  5.200E-25  4.362E-15
3.133E+02  5.401E-25  4.489E-15
3.105E+02  5.610E-25  4.620E-15
3.076E+02  5.826E-25  4.754E-15
3.048E+02  6.051E-25  4.892E-15
3.020E+02  6.284E-25  5.034E-15
2.992E+02  6.526E-25  5.180E-15
2.965E+02  6.777E-25  5.330E-15
2.938E+02  7.037E-25  5.483E-15
2.911E+02  7.306E-25  5.641E-15
2.884E+02  7.585E-25  5.803E-15
2.858E+02  7.875E-25  5.969E-15
2.831E+02  8.175E-25  6.140E-15
2.805E+02  8.486E-25  6.315E-15
2.780E+02  8.808E-25  6.495E-15
2.754E+02  9.142E-25  6.679E-15
2.729E+02  9.489E-25  6.869E-15
2.704E+02  9.849E-25  7.064E-15
2.679E+02  1.022E-24  7.265E-15
2.655E+02  1.061E-24  7.471E-15
2.630E+02  1.101E-24  7.682E-15
2.606E+02  1.143E-24  7.899E-15
2.582E+02  1.186E-24  8.121E-15
2.559E+02  1.230E-24  8.347E-15
2.535E+02  1.276E-24  8.578E-15
2.512E+02  1.323E-24  8.812E-15
2.489E+02  1.370E-24  9.046E-15
2.466E+02  1.418E-24  9.279E-15
2.443E+02  1.468E-24  9.514E-15
2.421E+02  1.519E-24  9.753E-15
2.399E+02  1.571E-24  9.993E-15
2.377E+02  1.623E-24  1.023E-14
2.355E+02  1.677E-24  1.048E-14
2.333E+02  1.732E-24  1.072E-14
2.312E+02  1.790E-24  1.098E-14
2.291E+02  1.848E-24  1.123E-14
2.270E+02  1.909E-24  1.149E-14
2.249E+02  1.971E-24  1.176E-14
2.228E+02  2.035E-24  1.203E-14
2.208E+02  2.101E-24  1.230E-14
2.188E+02  2.168E-24  1.258E-14
2.168E+02  2.238E-24  1.287E-14
2.148E+02  2.309E-24  1.315E-14
2.128E+02  2.382E-24  1.345E-14
2.109E+02  2.457E-24  1.374E-14
2.089E+02  2.534E-24  1.404E-14
2.070E+02  2.613E-24  1.435E-14
2.051E+02  2.694E-24  1.466E-14
2.032E+02  2.777E-24  1.497E-14
2.014E+02  2.862E-24  1.529E-14
1.995E+02  2.949E-24  1.561E-14
1.977E+02  3.039E-24  1.594E-14
1.959E+02  3.130E-24  1.627E-14
1.941E+02  3.224E-24  1.660E-14
1.923E+02  3.320E-24  1.694E-14
1.905E+02  3.418E-24  1.728E-14
1.888E+02  3.519E-24  1.762E-14
1.871E+02  3.622E-24  1.797E-14
1.854E+02  3.728E-24  1.833E-14
1.837E+02  3.835E-24  1.868E-14
1.820E+02  3.946E-24  1.905E-14
1.803E+02  4.058E-24  1.941E-14
1.786E+02  4.173E-24  1.978E-14
1.770E+02  4.291E-24  2.015E-14
1.754E+02  4.411E-24  2.052E-14
1.738E+02  4.534E-24  2.090E-14
1.722E+02  4.660E-24  2.128E-14
1.706E+02  4.788E-24  2.167E-14
1.690E+02  4.919E-24  2.206E-14
1.675E+02  5.053E-24  2.245E-14
1.660E+02  5.190E-24  2.285E-14
1.644E+02  5.329E-24  2.325E-14
1.629E+02  5.472E-24  2.365E-14
1.614E+02  5.618E-24  2.406E-14
1.600E+02  5.767E-24  2.447E-14
1.585E+02  5.919E-24  2.488E-14
1.570E+02  6.075E-24  2.531E-14
1.556E+02  6.235E-24  2.573E-14
1.542E+02  6.398E-24  2.616E-14
1.528E+02  6.565E-24  2.660E-14
1.514E+02  6.736E-24  2.705E-14
1.500E+02  6.912E-24  2.750E-14
1.486E+02  7.093E-24  2.796E-14
1.472E+02  7.278E-24  2.842E-14
1.459E+02  7.467E-24  2.889E-14
1.445E+02  7.659E-24  2.937E-14
1.432E+02  7.853E-24  2.983E-14
1.419E+02  8.046E-24  3.029E-14
1.406E+02  8.236E-24  3.072E-14
1.393E+02  8.421E-24  3.112E-14
1.380E+02  8.598E-24  3.148E-14
1.368E+02  8.767E-24  3.181E-14
1.355E+02  8.930E-24  3.210E-14
1.343E+02  9.090E-24  3.238E-14
1.330E+02  9.248E-24  3.264E-14
1.318E+02  9.406E-24  3.289E-14
1.306E+02  9.566E-24  3.314E-14
1.294E+02  9.729E-24  3.340E-14
1.282E+02  9.894E-24  3.365E-14
1.271E+02  1.006E-23  3.391E-14
1.259E+02  1.023E-23  3.417E-14
1.247E+02  1.040E-23  3.442E-14
1.236E+02  1.058E-23  3.468E-14
1.225E+02  1.076E-23  3.494E-14
1.213E+02  1.093E-23  3.519E-14
1.202E+02  1.111E-23  3.545E-14
1.191E+02  1.130E-23  3.569E-14
1.180E+02  1.148E-23  3.593E-14
1.169E+02  1.166E-23  3.617E-14
1.159E+02  1.184E-23  3.640E-14
1.148E+02  1.202E-23  3.662E-14
1.138E+02  1.221E-23  3.683E-14
1.127E+02  1.239E-23  3.704E-14
1.117E+02  1.257E-23  3.724E-14
1.107E+02  1.276E-23  3.744E-14
1.096E+02  1.294E-23  3.763E-14
1.086E+02  1.312E-23  3.781E-14
1.076E+02  1.330E-23  3.798E-14
1.067E+02  1.348E-23  3.814E-14
1.057E+02  1.366E-23  3.829E-14
1.047E+02  1.384E-23  3.844E-14
1.038E+02  1.401E-23  3.857E-14
1.028E+02  1.419E-23  3.869E-14
1.019E+02  1.436E-23  3.879E-14
1.009E+02  1.452E-23  3.888E-14
1.000E+02  1.469E-23  3.897E-14
9.908E+01  1.485E-23  3.903E-14
9.817E+01  1.501E-23  3.909E-14
9.727E+01  1.516E-23  3.913E-14
9.638E+01  1.532E-23  3.916E-14
9.550E+01  1.546E-23  3.917E-14
9.462E+01  1.561E-23  3.918E-14
9.376E+01  1.575E-23  3.916E-14
9.290E+01  1.588E-23  3.914E-14
9.204E+01  1.601E-23  3.910E-14
9.120E+01  1.614E-23  3.904E-14
9.036E+01  1.626E-23  3.898E-14
8.954E+01  1.638E-23  3.889E-14
8.872E+01  1.649E-23  3.880E-14
8.790E+01  1.659E-23  3.869E-14
8.710E+01  1.670E-23  3.857E-14
8.630E+01  1.679E-23  3.844E-14
8.551E+01  1.688E-23  3.829E-14
8.472E+01  1.697E-23  3.813E-14
8.395E+01  1.704E-23  3.795E-14
8.318E+01  1.712E-23  3.776E-14
8.241E+01  1.718E-23  3.756E-14
8.166E+01  1.724E-23  3.734E-14
8.091E+01  1.729E-23  3.712E-14
8.017E+01  1.734E-23  3.687E-14
7.943E+01  1.738E-23  3.662E-14
7.870E+01  1.741E-23  3.635E-14
7.798E+01  1.744E-23  3.607E-14
7.727E+01  1.745E-23  3.577E-14
7.656E+01  1.747E-23  3.547E-14
7.586E+01  1.747E-23  3.515E-14
7.516E+01  1.747E-23  3.482E-14
7.447E+01  1.746E-23  3.448E-14
7.379E+01  1.744E-23  3.413E-14
7.311E+01  1.741E-23  3.377E-14
7.244E+01  1.738E-23  3.339E-14
7.178E+01  1.734E-23  3.301E-14
7.112E+01  1.729E-23  3.261E-14
7.047E+01  1.723E-23  3.222E-14
6.982E+01  1.718E-23  3.181E-14
6.918E+01  1.711E-23  3.140E-14
6.855E+01  1.704E-23  3.098E-14
6.792E+01  1.695E-23  3.054E-14
6.730E+01  1.686E-23  3.011E-14
6.668E+01  1.677E-23  2.966E-14
6.607E+01  1.667E-23  2.922E-14
6.546E+01  1.656E-23  2.876E-14
6.486E+01  1.645E-23  2.831E-14
6.427E+01  1.633E-23  2.784E-14
6.368E+01  1.621E-23  2.738E-14
6.310E+01  1.608E-23  2.691E-14
6.252E+01  1.594E-23  2.644E-14
6.194E+01  1.580E-23  2.597E-14
6.138E+01  1.566E-23  2.550E-14
6.081E+01  1.551E-23  2.502E-14
6.026E+01  1.536E-23  2.455E-14
5.970E+01  1.520E-23  2.407E-14
5.916E+01  1.504E-23  2.360E-14
5.861E+01  1.487E-23  2.312E-14
5.808E+01  1.470E-23  2.264E-14
5.754E+01  1.452E-23  2.217E-14
5.702E+01  1.435E-23  2.170E-14
5.649E+01  1.417E-23  2.123E-14
5.598E+01  1.398E-23  2.076E-14
5.546E+01  1.380E-23  2.030E-14
5.495E+01  1.361E-23  1.985E-14
5.445E+01  1.343E-23  1.939E-14
5.395E+01  1.324E-23  1.894E-14
5.346E+01  1.305E-23  1.850E-14
5.297E+01  1.285E-23  1.806E-14
5.248E+01  1.266E-23  1.762E-14
5.200E+01  1.246E-23  1.719E-14
5.152E+01  1.227E-23  1.677E-14
5.105E+01  1.207E-23  1.635E-14
5.058E+01  1.188E-23  1.594E-14
5.012E+01  1.168E-23  1.553E-14
4.966E+01  1.148E-23  1.513E-14
