Dust emission from Draine & Li (2007): ApJ 657, 810-837
================================================================
         8 = grain model
 4.000E-08 4.000E-01 0.000E+00 = a_01 (cm) , sigma_1 , b_C1/0.92
 2.500E-07 4.000E-01 0.000E+00 = a_02 (cm) , sigma_2 , b_C2/0.92
 1.500E+00 1.000E+05 2.000E+00 = Umin , Umax, beta (dN/dU propto U^{-beta})
 1.666E+01 = <U> 
     mmp83 = radfield
 1.061E-23 = power/H (erg s-1)
 band   nu*P_nu(band) j_nu(band)
 (um)   (erg s-1 H-1)(Jy cm2 sr-1 H-1)
1.270E+00  2.312E-26  7.789E-19 COBE-DIRBE
2.220E+00  3.986E-26  2.347E-18 COBE-DIRBE
3.530E+00  4.414E-26  4.133E-18 COBE-DIRBE
4.880E+00  4.209E-26  5.448E-18 COBE-DIRBE
1.229E+01  6.042E-25  1.970E-16 COBE-DIRBE
2.079E+01  2.552E-24  1.407E-15 COBE-DIRBE
5.599E+01  5.442E-24  8.082E-15 COBE-DIRBE
9.770E+01  4.150E-24  1.075E-14 COBE-DIRBE
1.479E+02  2.406E-24  9.439E-15 COBE-DIRBE
2.479E+02  6.847E-25  4.502E-15 COBE-DIRBE
1.200E+01  5.218E-25  1.661E-16 IRAS
2.500E+01  3.156E-24  2.093E-15 IRAS
6.000E+01  5.359E-24  8.530E-15 IRAS
1.000E+02  4.052E-24  1.075E-14 IRAS
3.550E+00  4.422E-26  4.164E-18 SST-IRAC
4.493E+00  4.266E-26  5.084E-18 SST-IRAC
5.731E+00  4.357E-26  6.624E-18 SST-IRAC
7.872E+00  2.544E-25  5.311E-17 SST-IRAC
2.368E+01  3.120E-24  1.960E-15 SST-MIPS
7.142E+01  4.689E-24  8.883E-15 SST-MIPS
1.559E+02  2.037E-24  8.425E-15 SST-MIPS
1.600E+01  9.962E-25  4.228E-16 SST-IRSPU
2.200E+01  3.054E-24  1.782E-15 SST-IRSPU











lambda    nu*dP/dnu     j_nu
 (um)   (erg s-1 H-1)(Jy cm2 sr-1 H-1)
1.000E+04  2.159E-31  5.726E-20
9.908E+03  2.237E-31  5.879E-20
9.817E+03  2.318E-31  6.037E-20
9.727E+03  2.402E-31  6.198E-20
9.638E+03  2.489E-31  6.364E-20
9.550E+03  2.580E-31  6.535E-20
9.462E+03  2.673E-31  6.710E-20
9.376E+03  2.770E-31  6.890E-20
9.290E+03  2.871E-31  7.074E-20
9.204E+03  2.975E-31  7.264E-20
9.120E+03  3.083E-31  7.458E-20
9.036E+03  3.195E-31  7.658E-20
8.954E+03  3.310E-31  7.862E-20
8.872E+03  3.430E-31  8.071E-20
8.790E+03  3.554E-31  8.286E-20
8.710E+03  3.682E-31  8.506E-20
8.630E+03  3.815E-31  8.733E-20
8.551E+03  3.953E-31  8.965E-20
8.472E+03  4.096E-31  9.204E-20
8.395E+03  4.244E-31  9.450E-20
8.318E+03  4.398E-31  9.703E-20
8.241E+03  4.557E-31  9.962E-20
8.166E+03  4.722E-31  1.023E-19
8.091E+03  4.894E-31  1.050E-19
8.017E+03  5.071E-31  1.078E-19
7.943E+03  5.256E-31  1.107E-19
7.870E+03  5.447E-31  1.137E-19
7.798E+03  5.645E-31  1.168E-19
7.727E+03  5.850E-31  1.199E-19
7.656E+03  6.063E-31  1.231E-19
7.586E+03  6.284E-31  1.264E-19
7.516E+03  6.513E-31  1.299E-19
7.447E+03  6.751E-31  1.334E-19
7.379E+03  6.997E-31  1.370E-19
7.311E+03  7.253E-31  1.407E-19
7.244E+03  7.518E-31  1.445E-19
7.178E+03  7.793E-31  1.484E-19
7.112E+03  8.078E-31  1.524E-19
7.047E+03  8.374E-31  1.565E-19
6.982E+03  8.680E-31  1.608E-19
6.918E+03  8.997E-31  1.651E-19
6.855E+03  9.327E-31  1.696E-19
6.792E+03  9.668E-31  1.742E-19
6.730E+03  1.002E-30  1.789E-19
6.668E+03  1.039E-30  1.838E-19
6.607E+03  1.077E-30  1.888E-19
6.546E+03  1.117E-30  1.939E-19
6.486E+03  1.158E-30  1.992E-19
6.427E+03  1.200E-30  2.046E-19
6.368E+03  1.244E-30  2.102E-19
6.310E+03  1.290E-30  2.159E-19
6.252E+03  1.338E-30  2.218E-19
6.194E+03  1.387E-30  2.279E-19
6.138E+03  1.438E-30  2.341E-19
6.081E+03  1.491E-30  2.406E-19
6.026E+03  1.546E-30  2.472E-19
5.970E+03  1.603E-30  2.539E-19
5.916E+03  1.663E-30  2.609E-19
5.861E+03  1.724E-30  2.681E-19
5.808E+03  1.788E-30  2.755E-19
5.754E+03  1.854E-30  2.830E-19
5.702E+03  1.923E-30  2.908E-19
5.649E+03  1.994E-30  2.989E-19
5.598E+03  2.068E-30  3.071E-19
5.546E+03  2.145E-30  3.156E-19
5.495E+03  2.225E-30  3.243E-19
5.445E+03  2.308E-30  3.333E-19
5.395E+03  2.393E-30  3.425E-19
5.346E+03  2.483E-30  3.520E-19
5.297E+03  2.575E-30  3.618E-19
5.248E+03  2.671E-30  3.718E-19
5.200E+03  2.770E-30  3.821E-19
5.152E+03  2.874E-30  3.928E-19
5.105E+03  2.981E-30  4.037E-19
5.058E+03  3.092E-30  4.149E-19
5.012E+03  3.208E-30  4.265E-19
4.966E+03  3.328E-30  4.383E-19
4.920E+03  3.452E-30  4.505E-19
4.875E+03  3.581E-30  4.631E-19
4.831E+03  3.715E-30  4.760E-19
4.786E+03  3.854E-30  4.893E-19
4.742E+03  3.999E-30  5.030E-19
4.699E+03  4.148E-30  5.171E-19
4.656E+03  4.304E-30  5.316E-19
4.613E+03  4.466E-30  5.465E-19
4.571E+03  4.633E-30  5.618E-19
4.529E+03  4.808E-30  5.776E-19
4.487E+03  4.988E-30  5.938E-19
4.446E+03  5.176E-30  6.105E-19
4.406E+03  5.371E-30  6.277E-19
4.365E+03  5.574E-30  6.454E-19
4.325E+03  5.784E-30  6.636E-19
4.285E+03  6.002E-30  6.823E-19
4.246E+03  6.229E-30  7.016E-19
4.207E+03  6.464E-30  7.214E-19
4.169E+03  6.708E-30  7.418E-19
4.130E+03  6.962E-30  7.628E-19
4.093E+03  7.226E-30  7.844E-19
4.055E+03  7.499E-30  8.067E-19
4.018E+03  7.783E-30  8.295E-19
3.981E+03  8.078E-30  8.531E-19
3.945E+03  8.384E-30  8.772E-19
3.908E+03  8.702E-30  9.021E-19
3.873E+03  9.032E-30  9.278E-19
3.837E+03  9.374E-30  9.541E-19
3.802E+03  9.730E-30  9.813E-19
3.767E+03  1.010E-29  1.009E-18
3.733E+03  1.048E-29  1.038E-18
3.698E+03  1.088E-29  1.068E-18
3.664E+03  1.130E-29  1.098E-18
3.631E+03  1.173E-29  1.130E-18
3.597E+03  1.218E-29  1.162E-18
3.565E+03  1.264E-29  1.195E-18
3.532E+03  1.312E-29  1.229E-18
3.499E+03  1.363E-29  1.265E-18
3.467E+03  1.415E-29  1.301E-18
3.436E+03  1.469E-29  1.339E-18
3.404E+03  1.525E-29  1.377E-18
3.373E+03  1.584E-29  1.417E-18
3.342E+03  1.644E-29  1.458E-18
3.311E+03  1.707E-29  1.500E-18
3.281E+03  1.773E-29  1.543E-18
3.251E+03  1.841E-29  1.588E-18
3.221E+03  1.912E-29  1.634E-18
3.192E+03  1.986E-29  1.681E-18
3.162E+03  2.062E-29  1.730E-18
3.133E+03  2.141E-29  1.780E-18
3.105E+03  2.224E-29  1.831E-18
3.076E+03  2.310E-29  1.885E-18
3.048E+03  2.399E-29  1.940E-18
3.020E+03  2.492E-29  1.996E-18
2.992E+03  2.588E-29  2.054E-18
2.965E+03  2.687E-29  2.114E-18
2.938E+03  2.791E-29  2.175E-18
2.911E+03  2.899E-29  2.238E-18
2.884E+03  3.011E-29  2.303E-18
2.858E+03  3.127E-29  2.370E-18
2.831E+03  3.248E-29  2.439E-18
2.805E+03  3.374E-29  2.510E-18
2.780E+03  3.504E-29  2.584E-18
2.754E+03  3.640E-29  2.659E-18
2.729E+03  3.781E-29  2.737E-18
2.704E+03  3.928E-29  2.817E-18
2.679E+03  4.080E-29  2.900E-18
2.655E+03  4.239E-29  2.985E-18
2.630E+03  4.403E-29  3.072E-18
2.606E+03  4.574E-29  3.162E-18
2.582E+03  4.752E-29  3.255E-18
2.559E+03  4.937E-29  3.351E-18
2.535E+03  5.130E-29  3.450E-18
2.512E+03  5.330E-29  3.551E-18
2.489E+03  5.538E-29  3.656E-18
2.466E+03  5.754E-29  3.764E-18
2.443E+03  5.978E-29  3.875E-18
2.421E+03  6.212E-29  3.989E-18
2.399E+03  6.455E-29  4.107E-18
2.377E+03  6.707E-29  4.229E-18
2.355E+03  6.969E-29  4.354E-18
2.333E+03  7.242E-29  4.483E-18
2.312E+03  7.526E-29  4.616E-18
2.291E+03  7.821E-29  4.752E-18
2.270E+03  8.127E-29  4.893E-18
2.249E+03  8.446E-29  5.039E-18
2.228E+03  8.777E-29  5.188E-18
2.208E+03  9.122E-29  5.342E-18
2.188E+03  9.480E-29  5.501E-18
2.168E+03  9.852E-29  5.665E-18
2.148E+03  1.024E-28  5.834E-18
2.128E+03  1.064E-28  6.007E-18
2.109E+03  1.106E-28  6.186E-18
2.089E+03  1.150E-28  6.371E-18
2.070E+03  1.195E-28  6.561E-18
2.051E+03  1.242E-28  6.756E-18
2.032E+03  1.291E-28  6.958E-18
2.014E+03  1.341E-28  7.165E-18
1.995E+03  1.394E-28  7.379E-18
1.977E+03  1.449E-28  7.600E-18
1.959E+03  1.506E-28  7.826E-18
1.941E+03  1.566E-28  8.060E-18
1.923E+03  1.627E-28  8.301E-18
1.905E+03  1.691E-28  8.549E-18
1.888E+03  1.758E-28  8.805E-18
1.871E+03  1.827E-28  9.068E-18
1.854E+03  1.900E-28  9.340E-18
1.837E+03  1.975E-28  9.619E-18
1.820E+03  2.052E-28  9.907E-18
1.803E+03  2.134E-28  1.020E-17
1.786E+03  2.218E-28  1.051E-17
1.770E+03  2.305E-28  1.082E-17
1.754E+03  2.396E-28  1.115E-17
1.738E+03  2.491E-28  1.148E-17
1.722E+03  2.590E-28  1.183E-17
1.706E+03  2.692E-28  1.218E-17
1.690E+03  2.798E-28  1.255E-17
1.675E+03  2.909E-28  1.292E-17
1.660E+03  3.024E-28  1.331E-17
1.644E+03  3.143E-28  1.371E-17
1.629E+03  3.268E-28  1.412E-17
1.614E+03  3.397E-28  1.455E-17
1.600E+03  3.531E-28  1.498E-17
1.585E+03  3.671E-28  1.543E-17
1.570E+03  3.816E-28  1.590E-17
1.556E+03  3.967E-28  1.637E-17
1.542E+03  4.124E-28  1.686E-17
1.528E+03  4.287E-28  1.737E-17
1.514E+03  4.456E-28  1.789E-17
1.500E+03  4.632E-28  1.843E-17
1.486E+03  4.816E-28  1.898E-17
1.472E+03  5.006E-28  1.955E-17
1.459E+03  5.204E-28  2.014E-17
1.445E+03  5.410E-28  2.074E-17
1.432E+03  5.624E-28  2.137E-17
1.419E+03  5.846E-28  2.201E-17
1.406E+03  6.078E-28  2.267E-17
1.393E+03  6.318E-28  2.335E-17
1.380E+03  6.568E-28  2.405E-17
1.368E+03  6.828E-28  2.477E-17
1.355E+03  7.097E-28  2.551E-17
1.343E+03  7.378E-28  2.628E-17
1.330E+03  7.670E-28  2.707E-17
1.318E+03  7.973E-28  2.788E-17
1.306E+03  8.287E-28  2.871E-17
1.294E+03  8.615E-28  2.957E-17
1.282E+03  8.955E-28  3.046E-17
1.271E+03  9.308E-28  3.137E-17
1.259E+03  9.676E-28  3.231E-17
1.247E+03  1.006E-27  3.328E-17
1.236E+03  1.045E-27  3.427E-17
1.225E+03  1.087E-27  3.530E-17
1.213E+03  1.129E-27  3.635E-17
1.202E+03  1.174E-27  3.744E-17
1.191E+03  1.220E-27  3.855E-17
1.180E+03  1.268E-27  3.970E-17
1.169E+03  1.318E-27  4.089E-17
1.159E+03  1.370E-27  4.210E-17
1.148E+03  1.424E-27  4.336E-17
1.138E+03  1.480E-27  4.465E-17
1.127E+03  1.538E-27  4.598E-17
1.117E+03  1.598E-27  4.734E-17
1.107E+03  1.661E-27  4.875E-17
1.096E+03  1.726E-27  5.020E-17
1.086E+03  1.793E-27  5.168E-17
1.076E+03  1.864E-27  5.322E-17
1.067E+03  1.937E-27  5.479E-17
1.057E+03  2.012E-27  5.641E-17
1.047E+03  2.091E-27  5.808E-17
1.038E+03  2.173E-27  5.980E-17
1.028E+03  2.258E-27  6.156E-17
1.019E+03  2.346E-27  6.337E-17
1.009E+03  2.437E-27  6.524E-17
1.000E+03  2.532E-27  6.716E-17
9.908E+02  2.631E-27  6.914E-17
9.817E+02  2.733E-27  7.118E-17
9.727E+02  2.840E-27  7.327E-17
9.638E+02  2.950E-27  7.543E-17
9.550E+02  3.065E-27  7.764E-17
9.462E+02  3.184E-27  7.992E-17
9.376E+02  3.308E-27  8.226E-17
9.290E+02  3.436E-27  8.467E-17
9.204E+02  3.569E-27  8.715E-17
9.120E+02  3.708E-27  8.970E-17
9.036E+02  3.851E-27  9.232E-17
8.954E+02  4.000E-27  9.501E-17
8.872E+02  4.155E-27  9.777E-17
8.790E+02  4.315E-27  1.006E-16
8.710E+02  4.481E-27  1.035E-16
8.630E+02  4.653E-27  1.065E-16
8.551E+02  4.832E-27  1.096E-16
8.472E+02  5.018E-27  1.128E-16
8.395E+02  5.210E-27  1.160E-16
8.318E+02  5.410E-27  1.194E-16
8.241E+02  5.617E-27  1.228E-16
8.166E+02  5.832E-27  1.263E-16
8.091E+02  6.054E-27  1.299E-16
8.017E+02  6.285E-27  1.336E-16
7.943E+02  6.524E-27  1.375E-16
7.870E+02  6.772E-27  1.414E-16
7.798E+02  7.029E-27  1.454E-16
7.727E+02  7.296E-27  1.495E-16
7.656E+02  7.573E-27  1.538E-16
7.586E+02  7.860E-27  1.582E-16
7.516E+02  8.157E-27  1.626E-16
7.447E+02  8.466E-27  1.672E-16
7.379E+02  8.787E-27  1.720E-16
7.311E+02  9.120E-27  1.769E-16
7.244E+02  9.465E-27  1.819E-16
7.178E+02  9.823E-27  1.870E-16
7.112E+02  1.019E-26  1.923E-16
7.047E+02  1.058E-26  1.978E-16
6.982E+02  1.098E-26  2.034E-16
6.918E+02  1.139E-26  2.091E-16
6.855E+02  1.182E-26  2.150E-16
6.792E+02  1.227E-26  2.211E-16
6.730E+02  1.273E-26  2.273E-16
6.668E+02  1.321E-26  2.336E-16
6.607E+02  1.371E-26  2.402E-16
6.546E+02  1.422E-26  2.469E-16
6.486E+02  1.476E-26  2.539E-16
6.427E+02  1.531E-26  2.611E-16
6.368E+02  1.589E-26  2.684E-16
6.310E+02  1.649E-26  2.760E-16
6.252E+02  1.711E-26  2.838E-16
6.194E+02  1.776E-26  2.918E-16
6.138E+02  1.843E-26  3.000E-16
6.081E+02  1.912E-26  3.084E-16
6.026E+02  1.984E-26  3.171E-16
5.970E+02  2.059E-26  3.260E-16
5.916E+02  2.136E-26  3.352E-16
5.861E+02  2.216E-26  3.446E-16
5.808E+02  2.300E-26  3.543E-16
5.754E+02  2.386E-26  3.642E-16
5.702E+02  2.476E-26  3.744E-16
5.649E+02  2.569E-26  3.849E-16
5.598E+02  2.665E-26  3.957E-16
5.546E+02  2.765E-26  4.068E-16
5.495E+02  2.869E-26  4.182E-16
5.445E+02  2.977E-26  4.299E-16
5.395E+02  3.088E-26  4.419E-16
5.346E+02  3.204E-26  4.543E-16
5.297E+02  3.324E-26  4.670E-16
5.248E+02  3.449E-26  4.801E-16
5.200E+02  3.578E-26  4.935E-16
5.152E+02  3.712E-26  5.073E-16
5.105E+02  3.850E-26  5.214E-16
5.058E+02  3.994E-26  5.360E-16
5.012E+02  4.144E-26  5.509E-16
4.966E+02  4.298E-26  5.662E-16
4.920E+02  4.459E-26  5.819E-16
4.875E+02  4.625E-26  5.981E-16
4.831E+02  4.797E-26  6.147E-16
4.786E+02  4.976E-26  6.318E-16
4.742E+02  5.161E-26  6.492E-16
4.699E+02  5.353E-26  6.672E-16
4.656E+02  5.552E-26  6.856E-16
4.613E+02  5.758E-26  7.046E-16
4.571E+02  5.972E-26  7.240E-16
4.529E+02  6.193E-26  7.440E-16
4.487E+02  6.422E-26  7.645E-16
4.446E+02  6.660E-26  7.855E-16
4.406E+02  6.906E-26  8.070E-16
4.365E+02  7.161E-26  8.292E-16
4.325E+02  7.425E-26  8.519E-16
4.285E+02  7.699E-26  8.752E-16
4.246E+02  7.983E-26  8.991E-16
4.207E+02  8.276E-26  9.236E-16
4.169E+02  8.580E-26  9.488E-16
4.130E+02  8.895E-26  9.745E-16
4.093E+02  9.221E-26  1.001E-15
4.055E+02  9.560E-26  1.028E-15
4.018E+02  9.910E-26  1.056E-15
3.981E+02  1.027E-25  1.085E-15
3.945E+02  1.065E-25  1.114E-15
3.908E+02  1.104E-25  1.144E-15
3.873E+02  1.144E-25  1.175E-15
3.837E+02  1.186E-25  1.207E-15
3.802E+02  1.229E-25  1.239E-15
3.767E+02  1.274E-25  1.273E-15
3.733E+02  1.320E-25  1.307E-15
3.698E+02  1.368E-25  1.342E-15
3.664E+02  1.417E-25  1.378E-15
3.631E+02  1.469E-25  1.414E-15
3.597E+02  1.521E-25  1.452E-15
3.565E+02  1.576E-25  1.490E-15
3.532E+02  1.633E-25  1.530E-15
3.499E+02  1.692E-25  1.570E-15
3.467E+02  1.752E-25  1.612E-15
3.436E+02  1.815E-25  1.654E-15
3.404E+02  1.880E-25  1.698E-15
3.373E+02  1.947E-25  1.742E-15
3.342E+02  2.017E-25  1.788E-15
3.311E+02  2.089E-25  1.835E-15
3.281E+02  2.163E-25  1.882E-15
3.251E+02  2.239E-25  1.931E-15
3.221E+02  2.318E-25  1.981E-15
3.192E+02  2.400E-25  2.032E-15
3.162E+02  2.485E-25  2.084E-15
3.133E+02  2.572E-25  2.137E-15
3.105E+02  2.662E-25  2.192E-15
3.076E+02  2.755E-25  2.248E-15
3.048E+02  2.851E-25  2.305E-15
3.020E+02  2.951E-25  2.364E-15
2.992E+02  3.053E-25  2.424E-15
2.965E+02  3.159E-25  2.485E-15
2.938E+02  3.268E-25  2.547E-15
2.911E+02  3.381E-25  2.611E-15
2.884E+02  3.497E-25  2.676E-15
2.858E+02  3.617E-25  2.742E-15
2.831E+02  3.741E-25  2.810E-15
2.805E+02  3.869E-25  2.879E-15
2.780E+02  4.000E-25  2.949E-15
2.754E+02  4.136E-25  3.022E-15
2.729E+02  4.276E-25  3.095E-15
2.704E+02  4.421E-25  3.171E-15
2.679E+02  4.571E-25  3.248E-15
2.655E+02  4.725E-25  3.327E-15
2.630E+02  4.884E-25  3.408E-15
2.606E+02  5.048E-25  3.490E-15
2.582E+02  5.217E-25  3.574E-15
2.559E+02  5.390E-25  3.658E-15
2.535E+02  5.567E-25  3.743E-15
2.512E+02  5.748E-25  3.830E-15
2.489E+02  5.930E-25  3.915E-15
2.466E+02  6.113E-25  3.998E-15
2.443E+02  6.298E-25  4.082E-15
2.421E+02  6.487E-25  4.166E-15
2.399E+02  6.679E-25  4.250E-15
2.377E+02  6.872E-25  4.332E-15
2.355E+02  7.067E-25  4.415E-15
2.333E+02  7.268E-25  4.499E-15
2.312E+02  7.474E-25  4.584E-15
2.291E+02  7.684E-25  4.669E-15
2.270E+02  7.898E-25  4.756E-15
2.249E+02  8.117E-25  4.843E-15
2.228E+02  8.341E-25  4.930E-15
2.208E+02  8.570E-25  5.019E-15
2.188E+02  8.803E-25  5.109E-15
2.168E+02  9.041E-25  5.199E-15
2.148E+02  9.284E-25  5.290E-15
2.128E+02  9.532E-25  5.381E-15
2.109E+02  9.785E-25  5.473E-15
2.089E+02  1.004E-24  5.565E-15
2.070E+02  1.030E-24  5.658E-15
2.051E+02  1.057E-24  5.751E-15
2.032E+02  1.084E-24  5.845E-15
2.014E+02  1.112E-24  5.939E-15
1.995E+02  1.140E-24  6.033E-15
1.977E+02  1.169E-24  6.128E-15
1.959E+02  1.198E-24  6.223E-15
1.941E+02  1.227E-24  6.318E-15
1.923E+02  1.257E-24  6.414E-15
1.905E+02  1.288E-24  6.509E-15
1.888E+02  1.319E-24  6.605E-15
1.871E+02  1.351E-24  6.702E-15
1.854E+02  1.383E-24  6.798E-15
1.837E+02  1.415E-24  6.894E-15
1.820E+02  1.448E-24  6.991E-15
1.803E+02  1.482E-24  7.087E-15
1.786E+02  1.516E-24  7.183E-15
1.770E+02  1.550E-24  7.279E-15
1.754E+02  1.585E-24  7.375E-15
1.738E+02  1.621E-24  7.472E-15
1.722E+02  1.657E-24  7.567E-15
1.706E+02  1.693E-24  7.663E-15
1.690E+02  1.730E-24  7.760E-15
1.675E+02  1.768E-24  7.856E-15
1.660E+02  1.806E-24  7.952E-15
1.644E+02  1.845E-24  8.049E-15
1.629E+02  1.885E-24  8.145E-15
1.614E+02  1.925E-24  8.243E-15
1.600E+02  1.966E-24  8.340E-15
1.585E+02  2.007E-24  8.438E-15
1.570E+02  2.050E-24  8.538E-15
1.556E+02  2.093E-24  8.637E-15
1.542E+02  2.137E-24  8.739E-15
1.528E+02  2.182E-24  8.841E-15
1.514E+02  2.228E-24  8.946E-15
1.500E+02  2.276E-24  9.053E-15
1.486E+02  2.325E-24  9.163E-15
1.472E+02  2.375E-24  9.275E-15
1.459E+02  2.426E-24  9.388E-15
1.445E+02  2.478E-24  9.500E-15
1.432E+02  2.530E-24  9.610E-15
1.419E+02  2.581E-24  9.714E-15
1.406E+02  2.630E-24  9.808E-15
1.393E+02  2.676E-24  9.889E-15
1.380E+02  2.719E-24  9.956E-15
1.368E+02  2.759E-24  1.001E-14
1.355E+02  2.795E-24  1.005E-14
1.343E+02  2.830E-24  1.008E-14
1.330E+02  2.864E-24  1.011E-14
1.318E+02  2.898E-24  1.013E-14
1.306E+02  2.932E-24  1.016E-14
1.294E+02  2.967E-24  1.018E-14
1.282E+02  3.002E-24  1.021E-14
1.271E+02  3.039E-24  1.024E-14
1.259E+02  3.076E-24  1.027E-14
1.247E+02  3.113E-24  1.030E-14
1.236E+02  3.151E-24  1.033E-14
1.225E+02  3.190E-24  1.036E-14
1.213E+02  3.229E-24  1.039E-14
1.202E+02  3.269E-24  1.043E-14
1.191E+02  3.309E-24  1.046E-14
1.180E+02  3.349E-24  1.048E-14
1.169E+02  3.389E-24  1.051E-14
1.159E+02  3.428E-24  1.054E-14
1.148E+02  3.468E-24  1.056E-14
1.138E+02  3.508E-24  1.059E-14
1.127E+02  3.548E-24  1.061E-14
1.117E+02  3.589E-24  1.063E-14
1.107E+02  3.629E-24  1.065E-14
1.096E+02  3.669E-24  1.067E-14
1.086E+02  3.710E-24  1.069E-14
1.076E+02  3.750E-24  1.071E-14
1.067E+02  3.790E-24  1.072E-14
1.057E+02  3.830E-24  1.074E-14
1.047E+02  3.869E-24  1.075E-14
1.038E+02  3.909E-24  1.076E-14
1.028E+02  3.948E-24  1.077E-14
1.019E+02  3.987E-24  1.077E-14
1.009E+02  4.025E-24  1.078E-14
1.000E+02  4.063E-24  1.078E-14
9.908E+01  4.100E-24  1.078E-14
9.817E+01  4.138E-24  1.077E-14
9.727E+01  4.174E-24  1.077E-14
9.638E+01  4.210E-24  1.076E-14
9.550E+01  4.246E-24  1.076E-14
9.462E+01  4.282E-24  1.075E-14
9.376E+01  4.317E-24  1.074E-14
9.290E+01  4.351E-24  1.072E-14
9.204E+01  4.385E-24  1.071E-14
9.120E+01  4.419E-24  1.069E-14
9.036E+01  4.452E-24  1.067E-14
8.954E+01  4.485E-24  1.065E-14
8.872E+01  4.517E-24  1.063E-14
8.790E+01  4.549E-24  1.061E-14
8.710E+01  4.581E-24  1.058E-14
8.630E+01  4.613E-24  1.056E-14
8.551E+01  4.644E-24  1.053E-14
8.472E+01  4.674E-24  1.050E-14
8.395E+01  4.703E-24  1.047E-14
8.318E+01  4.732E-24  1.044E-14
8.241E+01  4.761E-24  1.041E-14
8.166E+01  4.789E-24  1.037E-14
8.091E+01  4.817E-24  1.034E-14
8.017E+01  4.845E-24  1.030E-14
7.943E+01  4.871E-24  1.026E-14
7.870E+01  4.897E-24  1.022E-14
7.798E+01  4.923E-24  1.018E-14
7.727E+01  4.948E-24  1.014E-14
7.656E+01  4.972E-24  1.010E-14
7.586E+01  4.996E-24  1.005E-14
7.516E+01  5.020E-24  1.001E-14
7.447E+01  5.043E-24  9.962E-15
7.379E+01  5.065E-24  9.914E-15
7.311E+01  5.086E-24  9.865E-15
7.244E+01  5.107E-24  9.814E-15
7.178E+01  5.127E-24  9.762E-15
7.112E+01  5.147E-24  9.709E-15
7.047E+01  5.166E-24  9.657E-15
6.982E+01  5.186E-24  9.606E-15
6.918E+01  5.206E-24  9.553E-15
6.855E+01  5.223E-24  9.497E-15
6.792E+01  5.240E-24  9.441E-15
6.730E+01  5.257E-24  9.384E-15
6.668E+01  5.273E-24  9.327E-15
6.607E+01  5.289E-24  9.270E-15
6.546E+01  5.305E-24  9.212E-15
6.486E+01  5.320E-24  9.153E-15
6.427E+01  5.334E-24  9.093E-15
6.368E+01  5.347E-24  9.033E-15
6.310E+01  5.361E-24  8.973E-15
6.252E+01  5.375E-24  8.913E-15
6.194E+01  5.387E-24  8.852E-15
6.138E+01  5.400E-24  8.792E-15
6.081E+01  5.412E-24  8.730E-15
6.026E+01  5.424E-24  8.669E-15
5.970E+01  5.434E-24  8.606E-15
5.916E+01  5.445E-24  8.544E-15
5.861E+01  5.454E-24  8.480E-15
5.808E+01  5.463E-24  8.416E-15
5.754E+01  5.472E-24  8.352E-15
5.702E+01  5.480E-24  8.287E-15
5.649E+01  5.487E-24  8.223E-15
5.598E+01  5.495E-24  8.159E-15
5.546E+01  5.502E-24  8.095E-15
5.495E+01  5.509E-24  8.031E-15
5.445E+01  5.516E-24  7.967E-15
5.395E+01  5.523E-24  7.903E-15
5.346E+01  5.529E-24  7.840E-15
5.297E+01  5.535E-24  7.776E-15
5.248E+01  5.540E-24  7.712E-15
5.200E+01  5.545E-24  7.648E-15
5.152E+01  5.549E-24  7.584E-15
5.105E+01  5.553E-24  7.520E-15
5.058E+01  5.557E-24  7.456E-15
5.012E+01  5.560E-24  7.391E-15
4.966E+01  5.562E-24  7.326E-15
