Dust emission from Draine & Li (2007): ApJ 657, 810-837
================================================================
         7 = grain model
 4.000E-08 4.000E-01 4.500E-05 = a_01 (cm) , sigma_1 , b_C1/0.92
 2.500E-07 4.000E-01 1.500E-05 = a_02 (cm) , sigma_2 , b_C2/0.92
 1.000E+00 1.000E+03 2.000E+00 = Umin , Umax, beta (dN/dU propto U^{-beta})
 6.915E+00 = <U> 
     mmp83 = radfield
 3.163E-23 = power/H (erg s-1)
 band   nu*P_nu(band) j_nu(band)
 (um)   (erg s-1 H-1)(Jy cm2 sr-1 H-1)
1.270E+00  1.264E-25  4.260E-18 COBE-DIRBE
2.220E+00  1.616E-25  9.516E-18 COBE-DIRBE
3.530E+00  1.051E-24  9.841E-17 COBE-DIRBE
4.880E+00  4.886E-25  6.324E-17 COBE-DIRBE
1.229E+01  4.289E-24  1.398E-15 COBE-DIRBE
2.079E+01  3.514E-24  1.938E-15 COBE-DIRBE
5.599E+01  1.503E-23  2.232E-14 COBE-DIRBE
9.770E+01  1.308E-23  3.389E-14 COBE-DIRBE
1.479E+02  7.916E-24  3.105E-14 COBE-DIRBE
2.479E+02  2.236E-24  1.470E-14 COBE-DIRBE
1.200E+01  4.543E-24  1.446E-15 IRAS
2.500E+01  3.683E-24  2.442E-15 IRAS
6.000E+01  1.503E-23  2.392E-14 IRAS
1.000E+02  1.281E-23  3.399E-14 IRAS
3.550E+00  1.222E-24  1.151E-16 SST-IRAC
4.493E+00  3.426E-25  4.083E-17 SST-IRAC
5.731E+00  2.888E-24  4.391E-16 SST-IRAC
7.872E+00  6.683E-24  1.395E-15 SST-IRAC
2.368E+01  3.142E-24  1.974E-15 SST-MIPS
7.142E+01  1.408E-23  2.667E-14 SST-MIPS
1.559E+02  6.741E-24  2.788E-14 SST-MIPS
1.600E+01  3.484E-24  1.479E-15 SST-IRSPU
2.200E+01  3.258E-24  1.901E-15 SST-IRSPU











lambda    nu*dP/dnu     j_nu
 (um)   (erg s-1 H-1)(Jy cm2 sr-1 H-1)
1.000E+04  6.508E-31  1.726E-19
9.908E+03  6.746E-31  1.773E-19
9.817E+03  6.992E-31  1.821E-19
9.727E+03  7.247E-31  1.870E-19
9.638E+03  7.512E-31  1.921E-19
9.550E+03  7.786E-31  1.972E-19
9.462E+03  8.071E-31  2.026E-19
9.376E+03  8.366E-31  2.081E-19
9.290E+03  8.671E-31  2.137E-19
9.204E+03  8.988E-31  2.195E-19
9.120E+03  9.317E-31  2.254E-19
9.036E+03  9.657E-31  2.315E-19
8.954E+03  1.001E-30  2.377E-19
8.872E+03  1.037E-30  2.441E-19
8.790E+03  1.075E-30  2.506E-19
8.710E+03  1.114E-30  2.574E-19
8.630E+03  1.155E-30  2.643E-19
8.551E+03  1.197E-30  2.714E-19
8.472E+03  1.240E-30  2.787E-19
8.395E+03  1.285E-30  2.862E-19
8.318E+03  1.332E-30  2.940E-19
8.241E+03  1.381E-30  3.019E-19
8.166E+03  1.432E-30  3.101E-19
8.091E+03  1.484E-30  3.185E-19
8.017E+03  1.538E-30  3.271E-19
7.943E+03  1.594E-30  3.359E-19
7.870E+03  1.653E-30  3.451E-19
7.798E+03  1.713E-30  3.544E-19
7.727E+03  1.776E-30  3.641E-19
7.656E+03  1.841E-30  3.740E-19
7.586E+03  1.909E-30  3.841E-19
7.516E+03  1.979E-30  3.946E-19
7.447E+03  2.052E-30  4.053E-19
7.379E+03  2.127E-30  4.164E-19
7.311E+03  2.206E-30  4.278E-19
7.244E+03  2.287E-30  4.394E-19
7.178E+03  2.371E-30  4.515E-19
7.112E+03  2.459E-30  4.638E-19
7.047E+03  2.549E-30  4.765E-19
6.982E+03  2.643E-30  4.896E-19
6.918E+03  2.741E-30  5.029E-19
6.855E+03  2.842E-30  5.167E-19
6.792E+03  2.947E-30  5.309E-19
6.730E+03  3.055E-30  5.454E-19
6.668E+03  3.168E-30  5.604E-19
6.607E+03  3.285E-30  5.758E-19
6.546E+03  3.407E-30  5.916E-19
6.486E+03  3.533E-30  6.079E-19
6.427E+03  3.664E-30  6.246E-19
6.368E+03  3.800E-30  6.419E-19
6.310E+03  3.941E-30  6.596E-19
6.252E+03  4.087E-30  6.778E-19
6.194E+03  4.239E-30  6.965E-19
6.138E+03  4.397E-30  7.158E-19
6.081E+03  4.560E-30  7.356E-19
6.026E+03  4.730E-30  7.560E-19
5.970E+03  4.906E-30  7.769E-19
5.916E+03  5.089E-30  7.985E-19
5.861E+03  5.279E-30  8.207E-19
5.808E+03  5.475E-30  8.435E-19
5.754E+03  5.680E-30  8.670E-19
5.702E+03  5.892E-30  8.911E-19
5.649E+03  6.112E-30  9.159E-19
5.598E+03  6.341E-30  9.415E-19
5.546E+03  6.578E-30  9.678E-19
5.495E+03  6.824E-30  9.948E-19
5.445E+03  7.080E-30  1.023E-18
5.395E+03  7.346E-30  1.051E-18
5.346E+03  7.621E-30  1.081E-18
5.297E+03  7.907E-30  1.111E-18
5.248E+03  8.204E-30  1.142E-18
5.200E+03  8.512E-30  1.174E-18
5.152E+03  8.832E-30  1.207E-18
5.105E+03  9.165E-30  1.241E-18
5.058E+03  9.510E-30  1.276E-18
5.012E+03  9.868E-30  1.312E-18
4.966E+03  1.024E-29  1.349E-18
4.920E+03  1.062E-29  1.387E-18
4.875E+03  1.103E-29  1.426E-18
4.831E+03  1.144E-29  1.466E-18
4.786E+03  1.187E-29  1.507E-18
4.742E+03  1.232E-29  1.550E-18
4.699E+03  1.279E-29  1.594E-18
4.656E+03  1.327E-29  1.639E-18
4.613E+03  1.377E-29  1.685E-18
4.571E+03  1.429E-29  1.733E-18
4.529E+03  1.484E-29  1.782E-18
4.487E+03  1.540E-29  1.833E-18
4.446E+03  1.598E-29  1.885E-18
4.406E+03  1.659E-29  1.939E-18
4.365E+03  1.722E-29  1.994E-18
4.325E+03  1.788E-29  2.051E-18
4.285E+03  1.856E-29  2.109E-18
4.246E+03  1.926E-29  2.170E-18
4.207E+03  2.000E-29  2.232E-18
4.169E+03  2.076E-29  2.295E-18
4.130E+03  2.155E-29  2.361E-18
4.093E+03  2.237E-29  2.429E-18
4.055E+03  2.323E-29  2.498E-18
4.018E+03  2.411E-29  2.570E-18
3.981E+03  2.503E-29  2.644E-18
3.945E+03  2.599E-29  2.720E-18
3.908E+03  2.698E-29  2.798E-18
3.873E+03  2.802E-29  2.878E-18
3.837E+03  2.909E-29  2.961E-18
3.802E+03  3.020E-29  3.046E-18
3.767E+03  3.136E-29  3.134E-18
3.733E+03  3.256E-29  3.224E-18
3.698E+03  3.381E-29  3.317E-18
3.664E+03  3.511E-29  3.413E-18
3.631E+03  3.646E-29  3.512E-18
3.597E+03  3.786E-29  3.613E-18
3.565E+03  3.932E-29  3.718E-18
3.532E+03  4.084E-29  3.826E-18
3.499E+03  4.241E-29  3.937E-18
3.467E+03  4.405E-29  4.051E-18
3.436E+03  4.575E-29  4.169E-18
3.404E+03  4.752E-29  4.290E-18
3.373E+03  4.935E-29  4.415E-18
3.342E+03  5.126E-29  4.544E-18
3.311E+03  5.325E-29  4.677E-18
3.281E+03  5.531E-29  4.813E-18
3.251E+03  5.745E-29  4.954E-18
3.221E+03  5.968E-29  5.099E-18
3.192E+03  6.200E-29  5.249E-18
3.162E+03  6.441E-29  5.402E-18
3.133E+03  6.691E-29  5.561E-18
3.105E+03  6.951E-29  5.724E-18
3.076E+03  7.221E-29  5.892E-18
3.048E+03  7.503E-29  6.066E-18
3.020E+03  7.795E-29  6.244E-18
2.992E+03  8.099E-29  6.428E-18
2.965E+03  8.413E-29  6.617E-18
2.938E+03  8.741E-29  6.811E-18
2.911E+03  9.081E-29  7.011E-18
2.884E+03  9.435E-29  7.218E-18
2.858E+03  9.802E-29  7.430E-18
2.831E+03  1.018E-28  7.649E-18
2.805E+03  1.058E-28  7.875E-18
2.780E+03  1.100E-28  8.108E-18
2.754E+03  1.143E-28  8.347E-18
2.729E+03  1.187E-28  8.594E-18
2.704E+03  1.234E-28  8.849E-18
2.679E+03  1.282E-28  9.111E-18
2.655E+03  1.332E-28  9.382E-18
2.630E+03  1.385E-28  9.660E-18
2.606E+03  1.439E-28  9.947E-18
2.582E+03  1.495E-28  1.024E-17
2.559E+03  1.554E-28  1.055E-17
2.535E+03  1.615E-28  1.086E-17
2.512E+03  1.679E-28  1.119E-17
2.489E+03  1.745E-28  1.152E-17
2.466E+03  1.814E-28  1.186E-17
2.443E+03  1.885E-28  1.222E-17
2.421E+03  1.959E-28  1.258E-17
2.399E+03  2.037E-28  1.296E-17
2.377E+03  2.117E-28  1.335E-17
2.355E+03  2.201E-28  1.375E-17
2.333E+03  2.287E-28  1.416E-17
2.312E+03  2.378E-28  1.458E-17
2.291E+03  2.472E-28  1.502E-17
2.270E+03  2.570E-28  1.547E-17
2.249E+03  2.671E-28  1.594E-17
2.228E+03  2.777E-28  1.642E-17
2.208E+03  2.887E-28  1.691E-17
2.188E+03  3.002E-28  1.742E-17
2.168E+03  3.121E-28  1.794E-17
2.148E+03  3.244E-28  1.848E-17
2.128E+03  3.373E-28  1.904E-17
2.109E+03  3.507E-28  1.962E-17
2.089E+03  3.646E-28  2.021E-17
2.070E+03  3.791E-28  2.082E-17
2.051E+03  3.942E-28  2.145E-17
2.032E+03  4.098E-28  2.209E-17
2.014E+03  4.261E-28  2.276E-17
1.995E+03  4.431E-28  2.345E-17
1.977E+03  4.607E-28  2.416E-17
1.959E+03  4.790E-28  2.489E-17
1.941E+03  4.981E-28  2.564E-17
1.923E+03  5.179E-28  2.642E-17
1.905E+03  5.385E-28  2.722E-17
1.888E+03  5.600E-28  2.804E-17
1.871E+03  5.823E-28  2.889E-17
1.854E+03  6.055E-28  2.977E-17
1.837E+03  6.296E-28  3.067E-17
1.820E+03  6.547E-28  3.160E-17
1.803E+03  6.808E-28  3.256E-17
1.786E+03  7.080E-28  3.355E-17
1.770E+03  7.362E-28  3.457E-17
1.754E+03  7.656E-28  3.562E-17
1.738E+03  7.962E-28  3.670E-17
1.722E+03  8.280E-28  3.782E-17
1.706E+03  8.610E-28  3.897E-17
1.690E+03  8.954E-28  4.015E-17
1.675E+03  9.312E-28  4.137E-17
1.660E+03  9.684E-28  4.263E-17
1.644E+03  1.007E-27  4.393E-17
1.629E+03  1.047E-27  4.526E-17
1.614E+03  1.089E-27  4.664E-17
1.600E+03  1.133E-27  4.806E-17
1.585E+03  1.178E-27  4.952E-17
1.570E+03  1.225E-27  5.103E-17
1.556E+03  1.274E-27  5.258E-17
1.542E+03  1.325E-27  5.418E-17
1.528E+03  1.378E-27  5.583E-17
1.514E+03  1.433E-27  5.753E-17
1.500E+03  1.490E-27  5.928E-17
1.486E+03  1.550E-27  6.108E-17
1.472E+03  1.612E-27  6.294E-17
1.459E+03  1.676E-27  6.486E-17
1.445E+03  1.743E-27  6.683E-17
1.432E+03  1.813E-27  6.887E-17
1.419E+03  1.885E-27  7.097E-17
1.406E+03  1.961E-27  7.313E-17
1.393E+03  2.039E-27  7.535E-17
1.380E+03  2.121E-27  7.765E-17
1.368E+03  2.205E-27  8.001E-17
1.355E+03  2.294E-27  8.245E-17
1.343E+03  2.385E-27  8.496E-17
1.330E+03  2.480E-27  8.754E-17
1.318E+03  2.580E-27  9.020E-17
1.306E+03  2.683E-27  9.295E-17
1.294E+03  2.790E-27  9.577E-17
1.282E+03  2.901E-27  9.868E-17
1.271E+03  3.017E-27  1.017E-16
1.259E+03  3.137E-27  1.048E-16
1.247E+03  3.262E-27  1.079E-16
1.236E+03  3.393E-27  1.112E-16
1.225E+03  3.528E-27  1.146E-16
1.213E+03  3.668E-27  1.181E-16
1.202E+03  3.815E-27  1.217E-16
1.191E+03  3.966E-27  1.253E-16
1.180E+03  4.124E-27  1.291E-16
1.169E+03  4.289E-27  1.330E-16
1.159E+03  4.459E-27  1.371E-16
1.148E+03  4.636E-27  1.412E-16
1.138E+03  4.821E-27  1.455E-16
1.127E+03  5.012E-27  1.499E-16
1.117E+03  5.211E-27  1.544E-16
1.107E+03  5.418E-27  1.590E-16
1.096E+03  5.633E-27  1.638E-16
1.086E+03  5.857E-27  1.688E-16
1.076E+03  6.089E-27  1.739E-16
1.067E+03  6.330E-27  1.791E-16
1.057E+03  6.581E-27  1.845E-16
1.047E+03  6.841E-27  1.900E-16
1.038E+03  7.111E-27  1.957E-16
1.028E+03  7.392E-27  2.016E-16
1.019E+03  7.684E-27  2.076E-16
1.009E+03  7.987E-27  2.138E-16
1.000E+03  8.302E-27  2.202E-16
9.908E+02  8.630E-27  2.268E-16
9.817E+02  8.971E-27  2.336E-16
9.727E+02  9.324E-27  2.406E-16
9.638E+02  9.692E-27  2.478E-16
9.550E+02  1.007E-26  2.552E-16
9.462E+02  1.047E-26  2.628E-16
9.376E+02  1.088E-26  2.706E-16
9.290E+02  1.131E-26  2.787E-16
9.204E+02  1.175E-26  2.870E-16
9.120E+02  1.221E-26  2.955E-16
9.036E+02  1.269E-26  3.042E-16
8.954E+02  1.319E-26  3.133E-16
8.872E+02  1.371E-26  3.225E-16
8.790E+02  1.424E-26  3.320E-16
8.710E+02  1.480E-26  3.418E-16
8.630E+02  1.537E-26  3.519E-16
8.551E+02  1.597E-26  3.623E-16
8.472E+02  1.659E-26  3.729E-16
8.395E+02  1.724E-26  3.838E-16
8.318E+02  1.791E-26  3.951E-16
8.241E+02  1.860E-26  4.066E-16
8.166E+02  1.932E-26  4.185E-16
8.091E+02  2.007E-26  4.307E-16
8.017E+02  2.084E-26  4.432E-16
7.943E+02  2.165E-26  4.561E-16
7.870E+02  2.248E-26  4.694E-16
7.798E+02  2.335E-26  4.830E-16
7.727E+02  2.425E-26  4.970E-16
7.656E+02  2.518E-26  5.113E-16
7.586E+02  2.615E-26  5.261E-16
7.516E+02  2.715E-26  5.413E-16
7.447E+02  2.819E-26  5.569E-16
7.379E+02  2.927E-26  5.730E-16
7.311E+02  3.040E-26  5.895E-16
7.244E+02  3.156E-26  6.065E-16
7.178E+02  3.277E-26  6.240E-16
7.112E+02  3.403E-26  6.419E-16
7.047E+02  3.533E-26  6.604E-16
6.982E+02  3.668E-26  6.794E-16
6.918E+02  3.808E-26  6.989E-16
6.855E+02  3.954E-26  7.189E-16
6.792E+02  4.105E-26  7.395E-16
6.730E+02  4.261E-26  7.606E-16
6.668E+02  4.423E-26  7.823E-16
6.607E+02  4.591E-26  8.045E-16
6.546E+02  4.766E-26  8.275E-16
6.486E+02  4.947E-26  8.512E-16
6.427E+02  5.136E-26  8.755E-16
6.368E+02  5.331E-26  9.006E-16
6.310E+02  5.534E-26  9.263E-16
6.252E+02  5.745E-26  9.527E-16
6.194E+02  5.964E-26  9.799E-16
6.138E+02  6.190E-26  1.008E-15
6.081E+02  6.425E-26  1.036E-15
6.026E+02  6.669E-26  1.066E-15
5.970E+02  6.922E-26  1.096E-15
5.916E+02  7.185E-26  1.127E-15
5.861E+02  7.457E-26  1.159E-15
5.808E+02  7.740E-26  1.192E-15
5.754E+02  8.033E-26  1.226E-15
5.702E+02  8.337E-26  1.261E-15
5.649E+02  8.652E-26  1.297E-15
5.598E+02  8.979E-26  1.333E-15
5.546E+02  9.318E-26  1.371E-15
5.495E+02  9.669E-26  1.410E-15
5.445E+02  1.003E-25  1.449E-15
5.395E+02  1.041E-25  1.490E-15
5.346E+02  1.080E-25  1.532E-15
5.297E+02  1.121E-25  1.575E-15
5.248E+02  1.163E-25  1.619E-15
5.200E+02  1.207E-25  1.665E-15
5.152E+02  1.252E-25  1.712E-15
5.105E+02  1.299E-25  1.760E-15
5.058E+02  1.348E-25  1.809E-15
5.012E+02  1.399E-25  1.859E-15
4.966E+02  1.451E-25  1.911E-15
4.920E+02  1.505E-25  1.964E-15
4.875E+02  1.561E-25  2.019E-15
4.831E+02  1.620E-25  2.075E-15
4.786E+02  1.680E-25  2.133E-15
4.742E+02  1.742E-25  2.192E-15
4.699E+02  1.807E-25  2.253E-15
4.656E+02  1.874E-25  2.315E-15
4.613E+02  1.944E-25  2.379E-15
4.571E+02  2.016E-25  2.444E-15
4.529E+02  2.091E-25  2.512E-15
4.487E+02  2.168E-25  2.581E-15
4.446E+02  2.248E-25  2.651E-15
4.406E+02  2.331E-25  2.724E-15
4.365E+02  2.417E-25  2.798E-15
4.325E+02  2.505E-25  2.874E-15
4.285E+02  2.597E-25  2.953E-15
4.246E+02  2.693E-25  3.033E-15
4.207E+02  2.791E-25  3.115E-15
4.169E+02  2.894E-25  3.200E-15
4.130E+02  2.999E-25  3.286E-15
4.093E+02  3.109E-25  3.375E-15
4.055E+02  3.222E-25  3.466E-15
4.018E+02  3.339E-25  3.559E-15
3.981E+02  3.461E-25  3.654E-15
3.945E+02  3.586E-25  3.752E-15
3.908E+02  3.716E-25  3.853E-15
3.873E+02  3.851E-25  3.956E-15
3.837E+02  3.990E-25  4.061E-15
3.802E+02  4.134E-25  4.169E-15
3.767E+02  4.283E-25  4.279E-15
3.733E+02  4.437E-25  4.393E-15
3.698E+02  4.596E-25  4.508E-15
3.664E+02  4.760E-25  4.627E-15
3.631E+02  4.931E-25  4.749E-15
3.597E+02  5.106E-25  4.873E-15
3.565E+02  5.288E-25  5.000E-15
3.532E+02  5.476E-25  5.130E-15
3.499E+02  5.671E-25  5.264E-15
3.467E+02  5.871E-25  5.400E-15
3.436E+02  6.079E-25  5.540E-15
3.404E+02  6.293E-25  5.682E-15
3.373E+02  6.514E-25  5.828E-15
3.342E+02  6.743E-25  5.977E-15
3.311E+02  6.979E-25  6.130E-15
3.281E+02  7.222E-25  6.286E-15
3.251E+02  7.474E-25  6.445E-15
3.221E+02  7.734E-25  6.608E-15
3.192E+02  8.002E-25  6.774E-15
3.162E+02  8.279E-25  6.944E-15
3.133E+02  8.564E-25  7.118E-15
3.105E+02  8.858E-25  7.295E-15
3.076E+02  9.162E-25  7.476E-15
3.048E+02  9.476E-25  7.661E-15
3.020E+02  9.799E-25  7.850E-15
2.992E+02  1.013E-24  8.042E-15
2.965E+02  1.048E-24  8.239E-15
2.938E+02  1.083E-24  8.439E-15
2.911E+02  1.119E-24  8.643E-15
2.884E+02  1.157E-24  8.852E-15
2.858E+02  1.196E-24  9.065E-15
2.831E+02  1.236E-24  9.282E-15
2.805E+02  1.277E-24  9.503E-15
2.780E+02  1.319E-24  9.728E-15
2.754E+02  1.363E-24  9.957E-15
2.729E+02  1.408E-24  1.019E-14
2.704E+02  1.454E-24  1.043E-14
2.679E+02  1.502E-24  1.068E-14
2.655E+02  1.551E-24  1.092E-14
2.630E+02  1.602E-24  1.118E-14
2.606E+02  1.654E-24  1.144E-14
2.582E+02  1.708E-24  1.170E-14
2.559E+02  1.763E-24  1.196E-14
2.535E+02  1.819E-24  1.223E-14
2.512E+02  1.877E-24  1.250E-14
2.489E+02  1.935E-24  1.277E-14
2.466E+02  1.993E-24  1.304E-14
2.443E+02  2.053E-24  1.331E-14
2.421E+02  2.114E-24  1.357E-14
2.399E+02  2.176E-24  1.384E-14
2.377E+02  2.238E-24  1.411E-14
2.355E+02  2.302E-24  1.438E-14
2.333E+02  2.367E-24  1.465E-14
2.312E+02  2.433E-24  1.492E-14
2.291E+02  2.501E-24  1.520E-14
2.270E+02  2.571E-24  1.548E-14
2.249E+02  2.642E-24  1.576E-14
2.228E+02  2.714E-24  1.604E-14
2.208E+02  2.788E-24  1.633E-14
2.188E+02  2.864E-24  1.662E-14
2.168E+02  2.942E-24  1.691E-14
2.148E+02  3.020E-24  1.721E-14
2.128E+02  3.101E-24  1.750E-14
2.109E+02  3.183E-24  1.780E-14
2.089E+02  3.267E-24  1.810E-14
2.070E+02  3.352E-24  1.841E-14
2.051E+02  3.439E-24  1.871E-14
2.032E+02  3.527E-24  1.902E-14
2.014E+02  3.618E-24  1.932E-14
1.995E+02  3.710E-24  1.963E-14
1.977E+02  3.803E-24  1.994E-14
1.959E+02  3.899E-24  2.026E-14
1.941E+02  3.995E-24  2.057E-14
1.923E+02  4.094E-24  2.089E-14
1.905E+02  4.195E-24  2.120E-14
1.888E+02  4.297E-24  2.152E-14
1.871E+02  4.402E-24  2.184E-14
1.854E+02  4.507E-24  2.216E-14
1.837E+02  4.615E-24  2.248E-14
1.820E+02  4.725E-24  2.281E-14
1.803E+02  4.836E-24  2.313E-14
1.786E+02  4.950E-24  2.346E-14
1.770E+02  5.066E-24  2.379E-14
1.754E+02  5.183E-24  2.411E-14
1.738E+02  5.303E-24  2.445E-14
1.722E+02  5.425E-24  2.478E-14
1.706E+02  5.549E-24  2.511E-14
1.690E+02  5.675E-24  2.545E-14
1.675E+02  5.804E-24  2.579E-14
1.660E+02  5.935E-24  2.613E-14
1.644E+02  6.069E-24  2.647E-14
1.629E+02  6.205E-24  2.682E-14
1.614E+02  6.345E-24  2.717E-14
1.600E+02  6.487E-24  2.752E-14
1.585E+02  6.632E-24  2.788E-14
1.570E+02  6.780E-24  2.824E-14
1.556E+02  6.933E-24  2.861E-14
1.542E+02  7.089E-24  2.899E-14
1.528E+02  7.248E-24  2.937E-14
1.514E+02  7.412E-24  2.976E-14
1.500E+02  7.579E-24  3.015E-14
1.486E+02  7.749E-24  3.054E-14
1.472E+02  7.922E-24  3.094E-14
1.459E+02  8.096E-24  3.133E-14
1.445E+02  8.271E-24  3.171E-14
1.432E+02  8.442E-24  3.207E-14
1.419E+02  8.607E-24  3.240E-14
1.406E+02  8.764E-24  3.268E-14
1.393E+02  8.908E-24  3.292E-14
1.380E+02  9.040E-24  3.310E-14
1.368E+02  9.158E-24  3.323E-14
1.355E+02  9.265E-24  3.330E-14
1.343E+02  9.364E-24  3.335E-14
1.330E+02  9.458E-24  3.338E-14
1.318E+02  9.551E-24  3.340E-14
1.306E+02  9.642E-24  3.341E-14
1.294E+02  9.735E-24  3.342E-14
1.282E+02  9.830E-24  3.344E-14
1.271E+02  9.926E-24  3.345E-14
1.259E+02  1.003E-23  3.348E-14
1.247E+02  1.013E-23  3.351E-14
1.236E+02  1.023E-23  3.355E-14
1.225E+02  1.034E-23  3.358E-14
1.213E+02  1.045E-23  3.363E-14
1.202E+02  1.056E-23  3.367E-14
1.191E+02  1.067E-23  3.372E-14
1.180E+02  1.079E-23  3.377E-14
1.169E+02  1.090E-23  3.381E-14
1.159E+02  1.101E-23  3.385E-14
1.148E+02  1.113E-23  3.389E-14
1.138E+02  1.124E-23  3.393E-14
1.127E+02  1.136E-23  3.397E-14
1.117E+02  1.148E-23  3.401E-14
1.107E+02  1.160E-23  3.404E-14
1.096E+02  1.172E-23  3.408E-14
1.086E+02  1.184E-23  3.411E-14
1.076E+02  1.195E-23  3.413E-14
1.067E+02  1.207E-23  3.416E-14
1.057E+02  1.219E-23  3.417E-14
1.047E+02  1.231E-23  3.419E-14
1.038E+02  1.243E-23  3.420E-14
1.028E+02  1.254E-23  3.420E-14
1.019E+02  1.265E-23  3.419E-14
1.009E+02  1.277E-23  3.418E-14
1.000E+02  1.288E-23  3.416E-14
9.908E+01  1.299E-23  3.413E-14
9.817E+01  1.310E-23  3.410E-14
9.727E+01  1.320E-23  3.406E-14
9.638E+01  1.331E-23  3.402E-14
9.550E+01  1.341E-23  3.397E-14
9.462E+01  1.351E-23  3.392E-14
9.376E+01  1.361E-23  3.386E-14
9.290E+01  1.371E-23  3.379E-14
9.204E+01  1.381E-23  3.371E-14
9.120E+01  1.390E-23  3.363E-14
9.036E+01  1.399E-23  3.354E-14
8.954E+01  1.408E-23  3.345E-14
8.872E+01  1.417E-23  3.335E-14
8.790E+01  1.426E-23  3.324E-14
8.710E+01  1.434E-23  3.313E-14
8.630E+01  1.442E-23  3.302E-14
8.551E+01  1.450E-23  3.290E-14
8.472E+01  1.458E-23  3.276E-14
8.395E+01  1.465E-23  3.262E-14
8.318E+01  1.472E-23  3.249E-14
8.241E+01  1.479E-23  3.234E-14
8.166E+01  1.486E-23  3.219E-14
8.091E+01  1.493E-23  3.204E-14
8.017E+01  1.499E-23  3.188E-14
7.943E+01  1.505E-23  3.172E-14
7.870E+01  1.511E-23  3.155E-14
7.798E+01  1.517E-23  3.137E-14
7.727E+01  1.522E-23  3.119E-14
7.656E+01  1.527E-23  3.101E-14
7.586E+01  1.532E-23  3.082E-14
7.516E+01  1.536E-23  3.063E-14
7.447E+01  1.540E-23  3.043E-14
7.379E+01  1.544E-23  3.022E-14
7.311E+01  1.547E-23  3.001E-14
7.244E+01  1.550E-23  2.979E-14
7.178E+01  1.553E-23  2.957E-14
7.112E+01  1.556E-23  2.935E-14
7.047E+01  1.558E-23  2.913E-14
6.982E+01  1.561E-23  2.890E-14
6.918E+01  1.563E-23  2.868E-14
6.855E+01  1.564E-23  2.844E-14
6.792E+01  1.566E-23  2.821E-14
6.730E+01  1.567E-23  2.797E-14
6.668E+01  1.568E-23  2.773E-14
6.607E+01  1.568E-23  2.748E-14
6.546E+01  1.568E-23  2.723E-14
6.486E+01  1.568E-23  2.699E-14
6.427E+01  1.568E-23  2.673E-14
6.368E+01  1.568E-23  2.648E-14
6.310E+01  1.567E-23  2.623E-14
6.252E+01  1.566E-23  2.597E-14
6.194E+01  1.565E-23  2.572E-14
6.138E+01  1.564E-23  2.546E-14
6.081E+01  1.562E-23  2.520E-14
6.026E+01  1.560E-23  2.494E-14
5.970E+01  1.558E-23  2.468E-14
5.916E+01  1.556E-23  2.442E-14
5.861E+01  1.553E-23  2.415E-14
5.808E+01  1.551E-23  2.389E-14
5.754E+01  1.548E-23  2.362E-14
5.702E+01  1.545E-23  2.336E-14
5.649E+01  1.541E-23  2.310E-14
5.598E+01  1.538E-23  2.283E-14
5.546E+01  1.534E-23  2.257E-14
5.495E+01  1.530E-23  2.231E-14
5.445E+01  1.526E-23  2.205E-14
5.395E+01  1.522E-23  2.179E-14
5.346E+01  1.518E-23  2.153E-14
5.297E+01  1.514E-23  2.126E-14
5.248E+01  1.509E-23  2.101E-14
5.200E+01  1.504E-23  2.075E-14
5.152E+01  1.499E-23  2.049E-14
5.105E+01  1.494E-23  2.023E-14
5.058E+01  1.489E-23  1.998E-14
5.012E+01  1.483E-23  1.972E-14
4.966E+01  1.478E-23  1.947E-14
