Dust emission from Draine & Li (2007): ApJ 657, 810-837
==========================================================
         6 = grain model
 4.000E-08 4.000E-01 3.750E-05 = a_01 (cm) , sigma_1 , b_C1/0.92
 2.000E-07 5.500E-01 1.250E-05 = a_02 (cm) , sigma_2 , b_C2/0.92
 1.000E+00 1.000E+06 2.000E+00 = Umin , Umax, beta (dN/dU propto U^{-beta})
 1.382E+01 = <U> 
     mmp83 = radfield
 6.203E-23 = power/H (erg s-1)
 band   nu*P_nu(band) j_nu(band)
 (um)   (erg s-1 H-1)(Jy cm2 sr-1 H-1)
1.270E+00  2.204E-25  7.423E-18 COBE-DIRBE
2.220E+00  2.938E-25  1.730E-17 COBE-DIRBE
3.530E+00  2.008E-24  1.880E-16 COBE-DIRBE
4.880E+00  1.211E-24  1.568E-16 COBE-DIRBE
1.229E+01  1.160E-23  3.783E-15 COBE-DIRBE
2.079E+01  1.642E-23  9.058E-15 COBE-DIRBE
5.599E+01  2.325E-23  3.454E-14 COBE-DIRBE
9.770E+01  1.469E-23  3.808E-14 COBE-DIRBE
1.479E+02  8.357E-24  3.279E-14 COBE-DIRBE
2.479E+02  2.300E-24  1.512E-14 COBE-DIRBE
1.200E+01  1.200E-23  3.818E-15 IRAS
2.500E+01  1.934E-23  1.282E-14 IRAS
6.000E+01  2.250E-23  3.581E-14 IRAS
1.000E+02  1.429E-23  3.790E-14 IRAS
3.550E+00  2.328E-24  2.192E-16 SST-IRAC
4.493E+00  8.571E-25  1.021E-16 SST-IRAC
5.731E+00  6.102E-24  9.277E-16 SST-IRAC
7.872E+00  1.536E-23  3.208E-15 SST-IRAC
2.368E+01  1.814E-23  1.140E-14 SST-MIPS
7.142E+01  1.771E-23  3.355E-14 SST-MIPS
1.559E+02  7.065E-24  2.922E-14 SST-MIPS
1.600E+01  1.204E-23  5.109E-15 SST-IRSPU
2.200E+01  1.801E-23  1.051E-14 SST-IRSPU
7.500E+01  1.530E-23  3.043E-14 Herschel-PACS
1.100E+02  1.027E-23  2.996E-14 Herschel-PACS
1.700E+02  5.374E-24  2.423E-14 Herschel-PACS
2.500E+02  1.945E-24  1.290E-14 Herschel-SPIRE
3.600E+02  5.353E-25  5.112E-15 Herschel-SPIRE
5.200E+02  1.302E-25  1.796E-15 Herschel-SPIRE
2.400E+00  3.360E-25  2.139E-17 Akari IRC NIR N2
3.200E+00  1.535E-24  1.303E-16 Akari IRC NIR N3
4.100E+00  8.979E-25  9.765E-17 Akari IRC NIR N4
7.000E+00  1.686E-23  3.130E-15 Akari IRC MIR-S S7
9.000E+00  1.307E-23  3.121E-15 Akari IRC MIR-S S9W
1.100E+01  1.111E-23  3.242E-15 Akari IRC MIR-S S11
1.500E+01  1.271E-23  5.057E-15 Akari IRC MIR-L L15
1.800E+01  1.501E-23  7.164E-15 Akari IRC MIR-L L18W
2.400E+01  1.800E-23  1.146E-14 Akari IRC MIR-L L24
6.500E+01  2.043E-23  3.522E-14 Akari FIS N60
8.000E+01  1.662E-23  3.527E-14 Akari FIS WIDE-S
1.400E+02  8.344E-24  3.099E-14 Akari FIS WIDE-L
1.600E+02  6.705E-24  2.846E-14 Akari FIS N160
 
 
 
 


lambda    nu*dP/dnu     j_nu
 (um)   (erg s-1 H-1)(Jy cm2 sr-1 H-1)
1.000E+04  6.472E-31  1.717E-19
9.908E+03  6.709E-31  1.763E-19
9.817E+03  6.954E-31  1.811E-19
9.727E+03  7.208E-31  1.860E-19
9.638E+03  7.472E-31  1.910E-19
9.550E+03  7.745E-31  1.962E-19
9.462E+03  8.028E-31  2.015E-19
9.376E+03  8.322E-31  2.070E-19
9.290E+03  8.626E-31  2.126E-19
9.204E+03  8.942E-31  2.183E-19
9.120E+03  9.269E-31  2.242E-19
9.036E+03  9.608E-31  2.303E-19
8.954E+03  9.958E-31  2.365E-19
8.872E+03  1.032E-30  2.429E-19
8.790E+03  1.070E-30  2.494E-19
8.710E+03  1.109E-30  2.561E-19
8.630E+03  1.149E-30  2.630E-19
8.551E+03  1.191E-30  2.701E-19
8.472E+03  1.234E-30  2.774E-19
8.395E+03  1.279E-30  2.849E-19
8.318E+03  1.326E-30  2.926E-19
8.241E+03  1.375E-30  3.005E-19
8.166E+03  1.425E-30  3.086E-19
8.091E+03  1.477E-30  3.170E-19
8.017E+03  1.531E-30  3.256E-19
7.943E+03  1.587E-30  3.344E-19
7.870E+03  1.645E-30  3.435E-19
7.798E+03  1.706E-30  3.528E-19
7.727E+03  1.768E-30  3.624E-19
7.656E+03  1.833E-30  3.723E-19
7.586E+03  1.901E-30  3.825E-19
7.516E+03  1.971E-30  3.929E-19
7.447E+03  2.043E-30  4.036E-19
7.379E+03  2.118E-30  4.146E-19
7.311E+03  2.196E-30  4.260E-19
7.244E+03  2.277E-30  4.376E-19
7.178E+03  2.361E-30  4.496E-19
7.112E+03  2.449E-30  4.619E-19
7.047E+03  2.539E-30  4.746E-19
6.982E+03  2.633E-30  4.876E-19
6.918E+03  2.730E-30  5.010E-19
6.855E+03  2.831E-30  5.147E-19
6.792E+03  2.935E-30  5.288E-19
6.730E+03  3.044E-30  5.434E-19
6.668E+03  3.156E-30  5.583E-19
6.607E+03  3.273E-30  5.736E-19
6.546E+03  3.394E-30  5.894E-19
6.486E+03  3.520E-30  6.057E-19
6.427E+03  3.651E-30  6.224E-19
6.368E+03  3.786E-30  6.396E-19
6.310E+03  3.927E-30  6.573E-19
6.252E+03  4.073E-30  6.754E-19
6.194E+03  4.224E-30  6.941E-19
6.138E+03  4.382E-30  7.134E-19
6.081E+03  4.545E-30  7.331E-19
6.026E+03  4.714E-30  7.535E-19
5.970E+03  4.890E-30  7.744E-19
5.916E+03  5.072E-30  7.959E-19
5.861E+03  5.262E-30  8.181E-19
5.808E+03  5.458E-30  8.409E-19
5.754E+03  5.662E-30  8.643E-19
5.702E+03  5.874E-30  8.884E-19
5.649E+03  6.094E-30  9.132E-19
5.598E+03  6.322E-30  9.387E-19
5.546E+03  6.559E-30  9.649E-19
5.495E+03  6.805E-30  9.919E-19
5.445E+03  7.060E-30  1.020E-18
5.395E+03  7.325E-30  1.048E-18
5.346E+03  7.600E-30  1.078E-18
5.297E+03  7.886E-30  1.108E-18
5.248E+03  8.182E-30  1.139E-18
5.200E+03  8.490E-30  1.171E-18
5.152E+03  8.809E-30  1.204E-18
5.105E+03  9.141E-30  1.238E-18
5.058E+03  9.486E-30  1.273E-18
5.012E+03  9.843E-30  1.309E-18
4.966E+03  1.021E-29  1.345E-18
4.920E+03  1.060E-29  1.383E-18
4.875E+03  1.100E-29  1.422E-18
4.831E+03  1.141E-29  1.463E-18
4.786E+03  1.185E-29  1.504E-18
4.742E+03  1.229E-29  1.547E-18
4.699E+03  1.276E-29  1.590E-18
4.656E+03  1.324E-29  1.635E-18
4.613E+03  1.374E-29  1.682E-18
4.571E+03  1.427E-29  1.730E-18
4.529E+03  1.481E-29  1.779E-18
4.487E+03  1.537E-29  1.829E-18
4.446E+03  1.595E-29  1.881E-18
4.406E+03  1.656E-29  1.935E-18
4.365E+03  1.719E-29  1.990E-18
4.325E+03  1.784E-29  2.047E-18
4.285E+03  1.852E-29  2.106E-18
4.246E+03  1.923E-29  2.166E-18
4.207E+03  1.996E-29  2.228E-18
4.169E+03  2.072E-29  2.292E-18
4.130E+03  2.152E-29  2.357E-18
4.093E+03  2.234E-29  2.425E-18
4.055E+03  2.319E-29  2.495E-18
4.018E+03  2.408E-29  2.566E-18
3.981E+03  2.500E-29  2.640E-18
3.945E+03  2.595E-29  2.716E-18
3.908E+03  2.695E-29  2.794E-18
3.873E+03  2.798E-29  2.874E-18
3.837E+03  2.905E-29  2.957E-18
3.802E+03  3.016E-29  3.042E-18
3.767E+03  3.132E-29  3.130E-18
3.733E+03  3.252E-29  3.220E-18
3.698E+03  3.377E-29  3.313E-18
3.664E+03  3.507E-29  3.409E-18
3.631E+03  3.642E-29  3.508E-18
3.597E+03  3.783E-29  3.610E-18
3.565E+03  3.928E-29  3.714E-18
3.532E+03  4.080E-29  3.822E-18
3.499E+03  4.237E-29  3.933E-18
3.467E+03  4.401E-29  4.048E-18
3.436E+03  4.571E-29  4.166E-18
3.404E+03  4.748E-29  4.287E-18
3.373E+03  4.932E-29  4.412E-18
3.342E+03  5.123E-29  4.541E-18
3.311E+03  5.321E-29  4.674E-18
3.281E+03  5.528E-29  4.811E-18
3.251E+03  5.742E-29  4.952E-18
3.221E+03  5.965E-29  5.097E-18
3.192E+03  6.197E-29  5.246E-18
3.162E+03  6.438E-29  5.400E-18
3.133E+03  6.688E-29  5.559E-18
3.105E+03  6.949E-29  5.722E-18
3.076E+03  7.219E-29  5.891E-18
3.048E+03  7.501E-29  6.064E-18
3.020E+03  7.793E-29  6.243E-18
2.992E+03  8.097E-29  6.427E-18
2.965E+03  8.412E-29  6.616E-18
2.938E+03  8.740E-29  6.810E-18
2.911E+03  9.080E-29  7.011E-18
2.884E+03  9.434E-29  7.217E-18
2.858E+03  9.803E-29  7.430E-18
2.831E+03  1.019E-28  7.650E-18
2.805E+03  1.058E-28  7.876E-18
2.780E+03  1.100E-28  8.109E-18
2.754E+03  1.143E-28  8.349E-18
2.729E+03  1.188E-28  8.596E-18
2.704E+03  1.234E-28  8.851E-18
2.679E+03  1.282E-28  9.114E-18
2.655E+03  1.333E-28  9.385E-18
2.630E+03  1.385E-28  9.664E-18
2.606E+03  1.440E-28  9.951E-18
2.582E+03  1.496E-28  1.025E-17
2.559E+03  1.555E-28  1.055E-17
2.535E+03  1.616E-28  1.087E-17
2.512E+03  1.680E-28  1.119E-17
2.489E+03  1.746E-28  1.153E-17
2.466E+03  1.815E-28  1.187E-17
2.443E+03  1.886E-28  1.223E-17
2.421E+03  1.961E-28  1.259E-17
2.399E+03  2.038E-28  1.297E-17
2.377E+03  2.119E-28  1.336E-17
2.355E+03  2.203E-28  1.376E-17
2.333E+03  2.290E-28  1.417E-17
2.312E+03  2.380E-28  1.460E-17
2.291E+03  2.474E-28  1.504E-17
2.270E+03  2.572E-28  1.549E-17
2.249E+03  2.674E-28  1.595E-17
2.228E+03  2.780E-28  1.644E-17
2.208E+03  2.891E-28  1.693E-17
2.188E+03  3.005E-28  1.744E-17
2.168E+03  3.125E-28  1.797E-17
2.148E+03  3.249E-28  1.851E-17
2.128E+03  3.378E-28  1.907E-17
2.109E+03  3.512E-28  1.964E-17
2.089E+03  3.652E-28  2.024E-17
2.070E+03  3.797E-28  2.085E-17
2.051E+03  3.948E-28  2.148E-17
2.032E+03  4.105E-28  2.213E-17
2.014E+03  4.268E-28  2.280E-17
1.995E+03  4.438E-28  2.349E-17
1.977E+03  4.615E-28  2.420E-17
1.959E+03  4.799E-28  2.493E-17
1.941E+03  4.990E-28  2.569E-17
1.923E+03  5.189E-28  2.647E-17
1.905E+03  5.395E-28  2.727E-17
1.888E+03  5.611E-28  2.810E-17
1.871E+03  5.834E-28  2.895E-17
1.854E+03  6.067E-28  2.983E-17
1.837E+03  6.309E-28  3.074E-17
1.820E+03  6.561E-28  3.167E-17
1.803E+03  6.823E-28  3.263E-17
1.786E+03  7.096E-28  3.363E-17
1.770E+03  7.379E-28  3.465E-17
1.754E+03  7.674E-28  3.570E-17
1.738E+03  7.981E-28  3.679E-17
1.722E+03  8.300E-28  3.791E-17
1.706E+03  8.632E-28  3.906E-17
1.690E+03  8.977E-28  4.025E-17
1.675E+03  9.336E-28  4.148E-17
1.660E+03  9.709E-28  4.274E-17
1.644E+03  1.010E-27  4.404E-17
1.629E+03  1.050E-27  4.539E-17
1.614E+03  1.092E-27  4.677E-17
1.600E+03  1.136E-27  4.819E-17
1.585E+03  1.181E-27  4.966E-17
1.570E+03  1.229E-27  5.118E-17
1.556E+03  1.278E-27  5.274E-17
1.542E+03  1.329E-27  5.434E-17
1.528E+03  1.382E-27  5.600E-17
1.514E+03  1.437E-27  5.771E-17
1.500E+03  1.495E-27  5.947E-17
1.486E+03  1.555E-27  6.128E-17
1.472E+03  1.617E-27  6.315E-17
1.459E+03  1.682E-27  6.508E-17
1.445E+03  1.749E-27  6.706E-17
1.432E+03  1.819E-27  6.911E-17
1.419E+03  1.892E-27  7.122E-17
1.406E+03  1.968E-27  7.339E-17
1.393E+03  2.047E-27  7.563E-17
1.380E+03  2.128E-27  7.794E-17
1.368E+03  2.214E-27  8.031E-17
1.355E+03  2.302E-27  8.276E-17
1.343E+03  2.394E-27  8.529E-17
1.330E+03  2.490E-27  8.789E-17
1.318E+03  2.590E-27  9.057E-17
1.306E+03  2.694E-27  9.332E-17
1.294E+03  2.801E-27  9.617E-17
1.282E+03  2.913E-27  9.910E-17
1.271E+03  3.030E-27  1.021E-16
1.259E+03  3.151E-27  1.052E-16
1.247E+03  3.277E-27  1.084E-16
1.236E+03  3.408E-27  1.117E-16
1.225E+03  3.544E-27  1.151E-16
1.213E+03  3.685E-27  1.186E-16
1.202E+03  3.832E-27  1.222E-16
1.191E+03  3.985E-27  1.259E-16
1.180E+03  4.144E-27  1.298E-16
1.169E+03  4.309E-27  1.337E-16
1.159E+03  4.481E-27  1.377E-16
1.148E+03  4.660E-27  1.419E-16
1.138E+03  4.845E-27  1.462E-16
1.127E+03  5.038E-27  1.506E-16
1.117E+03  5.239E-27  1.552E-16
1.107E+03  5.447E-27  1.599E-16
1.096E+03  5.664E-27  1.647E-16
1.086E+03  5.889E-27  1.697E-16
1.076E+03  6.122E-27  1.748E-16
1.067E+03  6.365E-27  1.801E-16
1.057E+03  6.618E-27  1.855E-16
1.047E+03  6.880E-27  1.911E-16
1.038E+03  7.153E-27  1.969E-16
1.028E+03  7.436E-27  2.028E-16
1.019E+03  7.730E-27  2.089E-16
1.009E+03  8.036E-27  2.151E-16
1.000E+03  8.354E-27  2.216E-16
9.908E+02  8.684E-27  2.282E-16
9.817E+02  9.028E-27  2.351E-16
9.727E+02  9.384E-27  2.421E-16
9.638E+02  9.755E-27  2.494E-16
9.550E+02  1.014E-26  2.569E-16
9.462E+02  1.054E-26  2.645E-16
9.376E+02  1.096E-26  2.724E-16
9.290E+02  1.139E-26  2.806E-16
9.204E+02  1.183E-26  2.889E-16
9.120E+02  1.230E-26  2.976E-16
9.036E+02  1.278E-26  3.064E-16
8.954E+02  1.328E-26  3.155E-16
8.872E+02  1.381E-26  3.249E-16
8.790E+02  1.435E-26  3.345E-16
8.710E+02  1.491E-26  3.444E-16
8.630E+02  1.549E-26  3.546E-16
8.551E+02  1.609E-26  3.650E-16
8.472E+02  1.672E-26  3.758E-16
8.395E+02  1.737E-26  3.869E-16
8.318E+02  1.805E-26  3.982E-16
8.241E+02  1.875E-26  4.099E-16
8.166E+02  1.948E-26  4.219E-16
8.091E+02  2.023E-26  4.343E-16
8.017E+02  2.102E-26  4.470E-16
7.943E+02  2.183E-26  4.600E-16
7.870E+02  2.268E-26  4.734E-16
7.798E+02  2.355E-26  4.872E-16
7.727E+02  2.446E-26  5.013E-16
7.656E+02  2.540E-26  5.159E-16
7.586E+02  2.638E-26  5.309E-16
7.516E+02  2.740E-26  5.462E-16
7.447E+02  2.845E-26  5.620E-16
7.379E+02  2.955E-26  5.783E-16
7.311E+02  3.068E-26  5.951E-16
7.244E+02  3.186E-26  6.123E-16
7.178E+02  3.309E-26  6.300E-16
7.112E+02  3.436E-26  6.482E-16
7.047E+02  3.568E-26  6.669E-16
6.982E+02  3.705E-26  6.862E-16
6.918E+02  3.847E-26  7.059E-16
6.855E+02  3.994E-26  7.263E-16
6.792E+02  4.147E-26  7.472E-16
6.730E+02  4.305E-26  7.686E-16
6.668E+02  4.470E-26  7.906E-16
6.607E+02  4.640E-26  8.132E-16
6.546E+02  4.817E-26  8.365E-16
6.486E+02  5.001E-26  8.605E-16
6.427E+02  5.193E-26  8.852E-16
6.368E+02  5.391E-26  9.106E-16
6.310E+02  5.597E-26  9.367E-16
6.252E+02  5.810E-26  9.636E-16
6.194E+02  6.032E-26  9.911E-16
6.138E+02  6.262E-26  1.020E-15
6.081E+02  6.501E-26  1.049E-15
6.026E+02  6.748E-26  1.079E-15
5.970E+02  7.005E-26  1.109E-15
5.916E+02  7.272E-26  1.141E-15
5.861E+02  7.548E-26  1.174E-15
5.808E+02  7.835E-26  1.207E-15
5.754E+02  8.132E-26  1.241E-15
5.702E+02  8.441E-26  1.277E-15
5.649E+02  8.761E-26  1.313E-15
5.598E+02  9.093E-26  1.350E-15
5.546E+02  9.438E-26  1.388E-15
5.495E+02  9.795E-26  1.428E-15
5.445E+02  1.017E-25  1.468E-15
5.395E+02  1.055E-25  1.510E-15
5.346E+02  1.095E-25  1.552E-15
5.297E+02  1.136E-25  1.596E-15
5.248E+02  1.179E-25  1.641E-15
5.200E+02  1.224E-25  1.688E-15
5.152E+02  1.270E-25  1.735E-15
5.105E+02  1.317E-25  1.784E-15
5.058E+02  1.367E-25  1.834E-15
5.012E+02  1.418E-25  1.886E-15
4.966E+02  1.472E-25  1.938E-15
4.920E+02  1.527E-25  1.993E-15
4.875E+02  1.584E-25  2.048E-15
4.831E+02  1.643E-25  2.106E-15
4.786E+02  1.705E-25  2.164E-15
4.742E+02  1.768E-25  2.224E-15
4.699E+02  1.834E-25  2.286E-15
4.656E+02  1.903E-25  2.350E-15
4.613E+02  1.973E-25  2.415E-15
4.571E+02  2.047E-25  2.482E-15
4.529E+02  2.123E-25  2.550E-15
4.487E+02  2.202E-25  2.621E-15
4.446E+02  2.283E-25  2.693E-15
4.406E+02  2.368E-25  2.767E-15
4.365E+02  2.455E-25  2.843E-15
4.325E+02  2.546E-25  2.921E-15
4.285E+02  2.639E-25  3.000E-15
4.246E+02  2.737E-25  3.082E-15
4.207E+02  2.837E-25  3.166E-15
4.169E+02  2.941E-25  3.253E-15
4.130E+02  3.049E-25  3.341E-15
4.093E+02  3.161E-25  3.431E-15
4.055E+02  3.276E-25  3.524E-15
4.018E+02  3.396E-25  3.619E-15
3.981E+02  3.520E-25  3.717E-15
3.945E+02  3.648E-25  3.817E-15
3.908E+02  3.781E-25  3.920E-15
3.873E+02  3.918E-25  4.025E-15
3.837E+02  4.060E-25  4.133E-15
3.802E+02  4.207E-25  4.243E-15
3.767E+02  4.359E-25  4.356E-15
3.733E+02  4.516E-25  4.472E-15
3.698E+02  4.679E-25  4.590E-15
3.664E+02  4.847E-25  4.712E-15
3.631E+02  5.021E-25  4.836E-15
3.597E+02  5.201E-25  4.963E-15
3.565E+02  5.387E-25  5.093E-15
3.532E+02  5.579E-25  5.227E-15
3.499E+02  5.778E-25  5.363E-15
3.467E+02  5.983E-25  5.503E-15
3.436E+02  6.195E-25  5.646E-15
3.404E+02  6.414E-25  5.792E-15
3.373E+02  6.641E-25  5.941E-15
3.342E+02  6.875E-25  6.094E-15
3.311E+02  7.116E-25  6.251E-15
3.281E+02  7.366E-25  6.410E-15
3.251E+02  7.623E-25  6.574E-15
3.221E+02  7.889E-25  6.741E-15
3.192E+02  8.164E-25  6.912E-15
3.162E+02  8.448E-25  7.086E-15
3.133E+02  8.740E-25  7.264E-15
3.105E+02  9.042E-25  7.446E-15
3.076E+02  9.353E-25  7.632E-15
3.048E+02  9.675E-25  7.822E-15
3.020E+02  1.001E-24  8.016E-15
2.992E+02  1.035E-24  8.214E-15
2.965E+02  1.070E-24  8.415E-15
2.938E+02  1.106E-24  8.622E-15
2.911E+02  1.144E-24  8.832E-15
2.884E+02  1.182E-24  9.046E-15
2.858E+02  1.222E-24  9.265E-15
2.831E+02  1.263E-24  9.488E-15
2.805E+02  1.306E-24  9.716E-15
2.780E+02  1.349E-24  9.948E-15
2.754E+02  1.394E-24  1.018E-14
2.729E+02  1.440E-24  1.043E-14
2.704E+02  1.488E-24  1.067E-14
2.679E+02  1.537E-24  1.092E-14
2.655E+02  1.588E-24  1.118E-14
2.630E+02  1.640E-24  1.144E-14
2.606E+02  1.694E-24  1.171E-14
2.582E+02  1.749E-24  1.198E-14
2.559E+02  1.806E-24  1.225E-14
2.535E+02  1.863E-24  1.253E-14
2.512E+02  1.923E-24  1.281E-14
2.489E+02  1.983E-24  1.309E-14
2.466E+02  2.043E-24  1.337E-14
2.443E+02  2.105E-24  1.364E-14
2.421E+02  2.168E-24  1.392E-14
2.399E+02  2.232E-24  1.420E-14
2.377E+02  2.296E-24  1.448E-14
2.355E+02  2.362E-24  1.476E-14
2.333E+02  2.430E-24  1.504E-14
2.312E+02  2.499E-24  1.533E-14
2.291E+02  2.570E-24  1.562E-14
2.270E+02  2.642E-24  1.591E-14
2.249E+02  2.716E-24  1.620E-14
2.228E+02  2.791E-24  1.650E-14
2.208E+02  2.869E-24  1.680E-14
2.188E+02  2.947E-24  1.710E-14
2.168E+02  3.028E-24  1.741E-14
2.148E+02  3.110E-24  1.772E-14
2.128E+02  3.194E-24  1.803E-14
2.109E+02  3.280E-24  1.835E-14
2.089E+02  3.367E-24  1.866E-14
2.070E+02  3.457E-24  1.898E-14
2.051E+02  3.547E-24  1.930E-14
2.032E+02  3.640E-24  1.962E-14
2.014E+02  3.735E-24  1.995E-14
1.995E+02  3.831E-24  2.028E-14
1.977E+02  3.930E-24  2.061E-14
1.959E+02  4.030E-24  2.094E-14
1.941E+02  4.132E-24  2.127E-14
1.923E+02  4.236E-24  2.161E-14
1.905E+02  4.342E-24  2.194E-14
1.888E+02  4.450E-24  2.228E-14
1.871E+02  4.560E-24  2.262E-14
1.854E+02  4.671E-24  2.297E-14
1.837E+02  4.785E-24  2.331E-14
1.820E+02  4.901E-24  2.366E-14
1.803E+02  5.019E-24  2.401E-14
1.786E+02  5.140E-24  2.436E-14
1.770E+02  5.262E-24  2.471E-14
1.754E+02  5.387E-24  2.506E-14
1.738E+02  5.514E-24  2.542E-14
1.722E+02  5.644E-24  2.578E-14
1.706E+02  5.776E-24  2.614E-14
1.690E+02  5.910E-24  2.650E-14
1.675E+02  6.047E-24  2.687E-14
1.660E+02  6.187E-24  2.724E-14
1.644E+02  6.330E-24  2.761E-14
1.629E+02  6.476E-24  2.799E-14
1.614E+02  6.625E-24  2.837E-14
1.600E+02  6.777E-24  2.875E-14
1.585E+02  6.933E-24  2.914E-14
1.570E+02  7.092E-24  2.954E-14
1.556E+02  7.255E-24  2.994E-14
1.542E+02  7.423E-24  3.035E-14
1.528E+02  7.594E-24  3.077E-14
1.514E+02  7.769E-24  3.119E-14
1.500E+02  7.949E-24  3.162E-14
1.486E+02  8.132E-24  3.205E-14
1.472E+02  8.318E-24  3.249E-14
1.459E+02  8.506E-24  3.291E-14
1.445E+02  8.694E-24  3.333E-14
1.432E+02  8.880E-24  3.373E-14
1.419E+02  9.059E-24  3.410E-14
1.406E+02  9.230E-24  3.443E-14
1.393E+02  9.389E-24  3.470E-14
1.380E+02  9.536E-24  3.492E-14
1.368E+02  9.669E-24  3.508E-14
1.355E+02  9.791E-24  3.520E-14
1.343E+02  9.905E-24  3.528E-14
1.330E+02  1.001E-23  3.534E-14
1.318E+02  1.012E-23  3.540E-14
1.306E+02  1.023E-23  3.545E-14
1.294E+02  1.034E-23  3.550E-14
1.282E+02  1.045E-23  3.555E-14
1.271E+02  1.057E-23  3.561E-14
1.259E+02  1.068E-23  3.568E-14
1.247E+02  1.080E-23  3.575E-14
1.236E+02  1.093E-23  3.583E-14
1.225E+02  1.106E-23  3.591E-14
1.213E+02  1.119E-23  3.600E-14
1.202E+02  1.132E-23  3.609E-14
1.191E+02  1.145E-23  3.619E-14
1.180E+02  1.159E-23  3.628E-14
1.169E+02  1.173E-23  3.638E-14
1.159E+02  1.186E-23  3.647E-14
1.148E+02  1.200E-23  3.656E-14
1.138E+02  1.215E-23  3.665E-14
1.127E+02  1.229E-23  3.674E-14
1.117E+02  1.243E-23  3.684E-14
1.107E+02  1.258E-23  3.693E-14
1.096E+02  1.273E-23  3.702E-14
1.086E+02  1.288E-23  3.711E-14
1.076E+02  1.303E-23  3.719E-14
1.067E+02  1.318E-23  3.728E-14
1.057E+02  1.333E-23  3.736E-14
1.047E+02  1.348E-23  3.743E-14
1.038E+02  1.363E-23  3.751E-14
1.028E+02  1.378E-23  3.757E-14
1.019E+02  1.393E-23  3.763E-14
1.009E+02  1.408E-23  3.769E-14
1.000E+02  1.423E-23  3.774E-14
9.908E+01  1.437E-23  3.778E-14
9.817E+01  1.452E-23  3.782E-14
9.727E+01  1.467E-23  3.786E-14
9.638E+01  1.482E-23  3.789E-14
9.550E+01  1.497E-23  3.791E-14
9.462E+01  1.511E-23  3.793E-14
9.376E+01  1.526E-23  3.795E-14
9.290E+01  1.540E-23  3.796E-14
9.204E+01  1.555E-23  3.796E-14
9.120E+01  1.569E-23  3.796E-14
9.036E+01  1.583E-23  3.795E-14
8.954E+01  1.597E-23  3.794E-14
8.872E+01  1.611E-23  3.792E-14
8.790E+01  1.626E-23  3.790E-14
8.710E+01  1.639E-23  3.788E-14
8.630E+01  1.653E-23  3.785E-14
8.551E+01  1.667E-23  3.782E-14
8.472E+01  1.681E-23  3.777E-14
8.395E+01  1.694E-23  3.773E-14
8.318E+01  1.708E-23  3.769E-14
8.241E+01  1.722E-23  3.764E-14
8.166E+01  1.735E-23  3.758E-14
8.091E+01  1.749E-23  3.753E-14
8.017E+01  1.762E-23  3.747E-14
7.943E+01  1.775E-23  3.741E-14
7.870E+01  1.789E-23  3.734E-14
7.798E+01  1.802E-23  3.727E-14
7.727E+01  1.815E-23  3.719E-14
7.656E+01  1.828E-23  3.712E-14
7.586E+01  1.840E-23  3.703E-14
7.516E+01  1.853E-23  3.695E-14
7.447E+01  1.866E-23  3.686E-14
7.379E+01  1.878E-23  3.676E-14
7.311E+01  1.891E-23  3.667E-14
7.244E+01  1.903E-23  3.657E-14
7.178E+01  1.915E-23  3.647E-14
7.112E+01  1.927E-23  3.636E-14
7.047E+01  1.940E-23  3.626E-14
6.982E+01  1.952E-23  3.616E-14
6.918E+01  1.965E-23  3.606E-14
6.855E+01  1.977E-23  3.595E-14
6.792E+01  1.989E-23  3.584E-14
6.730E+01  2.001E-23  3.573E-14
6.668E+01  2.014E-23  3.562E-14
6.607E+01  2.026E-23  3.551E-14
6.546E+01  2.038E-23  3.539E-14
6.486E+01  2.051E-23  3.528E-14
