Dust emission from Draine & Li (2007): ApJ 657, 810-837
==========================================================
         2 = grain model
 4.000E-08 4.000E-01 7.500E-06 = a_01 (cm) , sigma_1 , b_C1/0.92
 2.000E-07 5.500E-01 2.500E-06 = a_02 (cm) , sigma_2 , b_C2/0.92
 5.000E-01 1.000E+06 2.000E+00 = Umin , Umax, beta (dN/dU propto U^{-beta})
 7.254E+00 = <U> 
     mmp83 = radfield
 3.208E-23 = power/H (erg s-1)
 band   nu*P_nu(band) j_nu(band)
 (um)   (erg s-1 H-1)(Jy cm2 sr-1 H-1)
1.270E+00  3.106E-26  1.046E-18 COBE-DIRBE
2.220E+00  4.069E-26  2.396E-18 COBE-DIRBE
3.530E+00  3.061E-25  2.866E-17 COBE-DIRBE
4.880E+00  3.437E-25  4.450E-17 COBE-DIRBE
1.229E+01  4.097E-24  1.336E-15 COBE-DIRBE
2.079E+01  8.330E-24  4.594E-15 COBE-DIRBE
5.599E+01  1.355E-23  2.012E-14 COBE-DIRBE
9.770E+01  9.050E-24  2.345E-14 COBE-DIRBE
1.479E+02  5.578E-24  2.188E-14 COBE-DIRBE
2.479E+02  1.706E-24  1.122E-14 COBE-DIRBE
1.200E+01  3.925E-24  1.249E-15 IRAS
2.500E+01  1.039E-23  6.892E-15 IRAS
6.000E+01  1.315E-23  2.092E-14 IRAS
1.000E+02  8.842E-24  2.345E-14 IRAS
3.550E+00  3.513E-25  3.308E-17 SST-IRAC
4.493E+00  2.342E-25  2.791E-17 SST-IRAC
5.731E+00  1.361E-24  2.069E-16 SST-IRAC
7.872E+00  3.915E-24  8.175E-16 SST-IRAC
2.368E+01  9.802E-24  6.157E-15 SST-MIPS
7.142E+01  1.044E-23  1.978E-14 SST-MIPS
1.559E+02  4.804E-24  1.986E-14 SST-MIPS
1.600E+01  5.274E-24  2.238E-15 SST-IRSPU
2.200E+01  9.554E-24  5.575E-15 SST-IRSPU
7.500E+01  9.011E-24  1.793E-14 Herschel-PACS
1.100E+02  6.368E-24  1.858E-14 Herschel-PACS
1.700E+02  3.658E-24  1.650E-14 Herschel-PACS
2.500E+02  1.457E-24  9.660E-15 Herschel-SPIRE
3.600E+02  4.275E-25  4.082E-15 Herschel-SPIRE
5.200E+02  1.082E-25  1.493E-15 Herschel-SPIRE
2.400E+00  4.854E-26  3.090E-18 Akari IRC NIR N2
3.200E+00  2.292E-25  1.946E-17 Akari IRC NIR N3
4.100E+00  2.319E-25  2.522E-17 Akari IRC NIR N4
7.000E+00  4.003E-24  7.433E-16 Akari IRC MIR-S S7
9.000E+00  3.697E-24  8.827E-16 Akari IRC MIR-S S9W
1.100E+01  3.682E-24  1.074E-15 Akari IRC MIR-S S11
1.500E+01  5.573E-24  2.217E-15 Akari IRC MIR-L L15
1.800E+01  7.395E-24  3.531E-15 Akari IRC MIR-L L18W
2.400E+01  9.604E-24  6.114E-15 Akari IRC MIR-L L24
6.500E+01  1.197E-23  2.064E-14 Akari FIS N60
8.000E+01  1.004E-23  2.130E-14 Akari FIS WIDE-S
1.400E+02  5.576E-24  2.071E-14 Akari FIS WIDE-L
1.600E+02  4.608E-24  1.956E-14 Akari FIS N160
 
 
 
 


lambda    nu*dP/dnu     j_nu
 (um)   (erg s-1 H-1)(Jy cm2 sr-1 H-1)
1.000E+04  5.781E-31  1.534E-19
9.908E+03  5.993E-31  1.575E-19
9.817E+03  6.212E-31  1.618E-19
9.727E+03  6.440E-31  1.662E-19
9.638E+03  6.676E-31  1.707E-19
9.550E+03  6.920E-31  1.753E-19
9.462E+03  7.174E-31  1.801E-19
9.376E+03  7.436E-31  1.849E-19
9.290E+03  7.709E-31  1.900E-19
9.204E+03  7.991E-31  1.951E-19
9.120E+03  8.284E-31  2.004E-19
9.036E+03  8.587E-31  2.058E-19
8.954E+03  8.901E-31  2.114E-19
8.872E+03  9.225E-31  2.171E-19
8.790E+03  9.561E-31  2.229E-19
8.710E+03  9.910E-31  2.290E-19
8.630E+03  1.027E-30  2.351E-19
8.551E+03  1.065E-30  2.415E-19
8.472E+03  1.104E-30  2.480E-19
8.395E+03  1.144E-30  2.547E-19
8.318E+03  1.186E-30  2.616E-19
8.241E+03  1.229E-30  2.687E-19
8.166E+03  1.274E-30  2.760E-19
8.091E+03  1.321E-30  2.835E-19
8.017E+03  1.369E-30  2.912E-19
7.943E+03  1.420E-30  2.991E-19
7.870E+03  1.472E-30  3.073E-19
7.798E+03  1.526E-30  3.156E-19
7.727E+03  1.582E-30  3.242E-19
7.656E+03  1.640E-30  3.331E-19
7.586E+03  1.700E-30  3.422E-19
7.516E+03  1.763E-30  3.515E-19
7.447E+03  1.828E-30  3.611E-19
7.379E+03  1.895E-30  3.710E-19
7.311E+03  1.965E-30  3.812E-19
7.244E+03  2.038E-30  3.916E-19
7.178E+03  2.113E-30  4.023E-19
7.112E+03  2.191E-30  4.134E-19
7.047E+03  2.272E-30  4.247E-19
6.982E+03  2.356E-30  4.364E-19
6.918E+03  2.443E-30  4.484E-19
6.855E+03  2.534E-30  4.607E-19
6.792E+03  2.627E-30  4.733E-19
6.730E+03  2.724E-30  4.863E-19
6.668E+03  2.825E-30  4.997E-19
6.607E+03  2.930E-30  5.135E-19
6.546E+03  3.039E-30  5.276E-19
6.486E+03  3.151E-30  5.422E-19
6.427E+03  3.268E-30  5.572E-19
6.368E+03  3.390E-30  5.726E-19
6.310E+03  3.516E-30  5.884E-19
6.252E+03  3.646E-30  6.047E-19
6.194E+03  3.782E-30  6.214E-19
6.138E+03  3.923E-30  6.387E-19
6.081E+03  4.069E-30  6.564E-19
6.026E+03  4.221E-30  6.746E-19
5.970E+03  4.378E-30  6.934E-19
5.916E+03  4.542E-30  7.126E-19
5.861E+03  4.711E-30  7.325E-19
5.808E+03  4.887E-30  7.529E-19
5.754E+03  5.070E-30  7.739E-19
5.702E+03  5.259E-30  7.954E-19
5.649E+03  5.456E-30  8.177E-19
5.598E+03  5.661E-30  8.405E-19
5.546E+03  5.873E-30  8.640E-19
5.495E+03  6.093E-30  8.882E-19
5.445E+03  6.321E-30  9.130E-19
5.395E+03  6.559E-30  9.386E-19
5.346E+03  6.805E-30  9.649E-19
5.297E+03  7.061E-30  9.920E-19
5.248E+03  7.326E-30  1.020E-18
5.200E+03  7.601E-30  1.048E-18
5.152E+03  7.888E-30  1.078E-18
5.105E+03  8.184E-30  1.108E-18
5.058E+03  8.493E-30  1.140E-18
5.012E+03  8.813E-30  1.172E-18
4.966E+03  9.145E-30  1.205E-18
4.920E+03  9.489E-30  1.239E-18
4.875E+03  9.847E-30  1.273E-18
4.831E+03  1.022E-29  1.309E-18
4.786E+03  1.060E-29  1.346E-18
4.742E+03  1.101E-29  1.384E-18
4.699E+03  1.142E-29  1.424E-18
4.656E+03  1.185E-29  1.464E-18
4.613E+03  1.230E-29  1.505E-18
4.571E+03  1.277E-29  1.548E-18
4.529E+03  1.325E-29  1.592E-18
4.487E+03  1.376E-29  1.637E-18
4.446E+03  1.428E-29  1.684E-18
4.406E+03  1.482E-29  1.732E-18
4.365E+03  1.538E-29  1.781E-18
4.325E+03  1.597E-29  1.832E-18
4.285E+03  1.658E-29  1.884E-18
4.246E+03  1.721E-29  1.938E-18
4.207E+03  1.786E-29  1.993E-18
4.169E+03  1.854E-29  2.050E-18
4.130E+03  1.925E-29  2.109E-18
4.093E+03  1.998E-29  2.169E-18
4.055E+03  2.075E-29  2.232E-18
4.018E+03  2.154E-29  2.295E-18
3.981E+03  2.236E-29  2.361E-18
3.945E+03  2.321E-29  2.429E-18
3.908E+03  2.410E-29  2.499E-18
3.873E+03  2.502E-29  2.570E-18
3.837E+03  2.598E-29  2.644E-18
3.802E+03  2.697E-29  2.720E-18
3.767E+03  2.800E-29  2.798E-18
3.733E+03  2.908E-29  2.879E-18
3.698E+03  3.019E-29  2.962E-18
3.664E+03  3.135E-29  3.047E-18
3.631E+03  3.256E-29  3.135E-18
3.597E+03  3.381E-29  3.226E-18
3.565E+03  3.511E-29  3.319E-18
3.532E+03  3.646E-29  3.416E-18
3.499E+03  3.786E-29  3.514E-18
3.467E+03  3.932E-29  3.616E-18
3.436E+03  4.084E-29  3.721E-18
3.404E+03  4.241E-29  3.829E-18
3.373E+03  4.405E-29  3.941E-18
3.342E+03  4.575E-29  4.056E-18
3.311E+03  4.752E-29  4.174E-18
3.281E+03  4.935E-29  4.295E-18
3.251E+03  5.126E-29  4.421E-18
3.221E+03  5.325E-29  4.550E-18
3.192E+03  5.531E-29  4.682E-18
3.162E+03  5.745E-29  4.819E-18
3.133E+03  5.968E-29  4.960E-18
3.105E+03  6.200E-29  5.106E-18
3.076E+03  6.440E-29  5.255E-18
3.048E+03  6.691E-29  5.409E-18
3.020E+03  6.951E-29  5.568E-18
2.992E+03  7.221E-29  5.731E-18
2.965E+03  7.501E-29  5.899E-18
2.938E+03  7.792E-29  6.072E-18
2.911E+03  8.095E-29  6.250E-18
2.884E+03  8.409E-29  6.433E-18
2.858E+03  8.736E-29  6.622E-18
2.831E+03  9.076E-29  6.817E-18
2.805E+03  9.429E-29  7.017E-18
2.780E+03  9.797E-29  7.224E-18
2.754E+03  1.018E-28  7.436E-18
2.729E+03  1.058E-28  7.656E-18
2.704E+03  1.099E-28  7.881E-18
2.679E+03  1.142E-28  8.114E-18
2.655E+03  1.186E-28  8.354E-18
2.630E+03  1.233E-28  8.601E-18
2.606E+03  1.281E-28  8.855E-18
2.582E+03  1.331E-28  9.118E-18
2.559E+03  1.383E-28  9.388E-18
2.535E+03  1.437E-28  9.666E-18
2.512E+03  1.494E-28  9.953E-18
2.489E+03  1.552E-28  1.025E-17
2.466E+03  1.613E-28  1.055E-17
2.443E+03  1.677E-28  1.087E-17
2.421E+03  1.742E-28  1.119E-17
2.399E+03  1.811E-28  1.152E-17
2.377E+03  1.882E-28  1.187E-17
2.355E+03  1.956E-28  1.222E-17
2.333E+03  2.033E-28  1.258E-17
2.312E+03  2.113E-28  1.296E-17
2.291E+03  2.196E-28  1.335E-17
2.270E+03  2.283E-28  1.375E-17
2.249E+03  2.373E-28  1.416E-17
2.228E+03  2.467E-28  1.458E-17
2.208E+03  2.564E-28  1.502E-17
2.188E+03  2.665E-28  1.547E-17
2.168E+03  2.770E-28  1.593E-17
2.148E+03  2.880E-28  1.641E-17
2.128E+03  2.994E-28  1.690E-17
2.109E+03  3.112E-28  1.741E-17
2.089E+03  3.235E-28  1.793E-17
2.070E+03  3.363E-28  1.847E-17
2.051E+03  3.496E-28  1.902E-17
2.032E+03  3.634E-28  1.959E-17
2.014E+03  3.778E-28  2.018E-17
1.995E+03  3.928E-28  2.079E-17
1.977E+03  4.083E-28  2.141E-17
1.959E+03  4.245E-28  2.206E-17
1.941E+03  4.413E-28  2.272E-17
1.923E+03  4.588E-28  2.340E-17
1.905E+03  4.769E-28  2.411E-17
1.888E+03  4.958E-28  2.483E-17
1.871E+03  5.155E-28  2.558E-17
1.854E+03  5.359E-28  2.635E-17
1.837E+03  5.572E-28  2.714E-17
1.820E+03  5.793E-28  2.796E-17
1.803E+03  6.023E-28  2.881E-17
1.786E+03  6.262E-28  2.968E-17
1.770E+03  6.511E-28  3.057E-17
1.754E+03  6.769E-28  3.149E-17
1.738E+03  7.038E-28  3.244E-17
1.722E+03  7.318E-28  3.342E-17
1.706E+03  7.609E-28  3.443E-17
1.690E+03  7.911E-28  3.547E-17
1.675E+03  8.225E-28  3.654E-17
1.660E+03  8.552E-28  3.765E-17
1.644E+03  8.892E-28  3.879E-17
1.629E+03  9.245E-28  3.996E-17
1.614E+03  9.613E-28  4.116E-17
1.600E+03  9.995E-28  4.241E-17
1.585E+03  1.039E-27  4.369E-17
1.570E+03  1.081E-27  4.501E-17
1.556E+03  1.123E-27  4.637E-17
1.542E+03  1.168E-27  4.777E-17
1.528E+03  1.215E-27  4.921E-17
1.514E+03  1.263E-27  5.070E-17
1.500E+03  1.313E-27  5.223E-17
1.486E+03  1.365E-27  5.381E-17
1.472E+03  1.420E-27  5.544E-17
1.459E+03  1.476E-27  5.712E-17
1.445E+03  1.535E-27  5.884E-17
1.432E+03  1.596E-27  6.062E-17
1.419E+03  1.659E-27  6.245E-17
1.406E+03  1.725E-27  6.434E-17
1.393E+03  1.794E-27  6.629E-17
1.380E+03  1.865E-27  6.829E-17
1.368E+03  1.939E-27  7.035E-17
1.355E+03  2.016E-27  7.248E-17
1.343E+03  2.096E-27  7.467E-17
1.330E+03  2.180E-27  7.692E-17
1.318E+03  2.266E-27  7.924E-17
1.306E+03  2.356E-27  8.164E-17
1.294E+03  2.450E-27  8.410E-17
1.282E+03  2.547E-27  8.664E-17
1.271E+03  2.648E-27  8.925E-17
1.259E+03  2.753E-27  9.194E-17
1.247E+03  2.862E-27  9.471E-17
1.236E+03  2.976E-27  9.756E-17
1.225E+03  3.094E-27  1.005E-16
1.213E+03  3.216E-27  1.035E-16
1.202E+03  3.344E-27  1.066E-16
1.191E+03  3.476E-27  1.098E-16
1.180E+03  3.613E-27  1.131E-16
1.169E+03  3.756E-27  1.165E-16
1.159E+03  3.905E-27  1.200E-16
1.148E+03  4.059E-27  1.236E-16
1.138E+03  4.220E-27  1.273E-16
1.127E+03  4.386E-27  1.311E-16
1.117E+03  4.559E-27  1.351E-16
1.107E+03  4.739E-27  1.391E-16
1.096E+03  4.926E-27  1.433E-16
1.086E+03  5.120E-27  1.476E-16
1.076E+03  5.322E-27  1.520E-16
1.067E+03  5.531E-27  1.565E-16
1.057E+03  5.749E-27  1.612E-16
1.047E+03  5.975E-27  1.660E-16
1.038E+03  6.209E-27  1.709E-16
1.028E+03  6.453E-27  1.760E-16
1.019E+03  6.706E-27  1.812E-16
1.009E+03  6.969E-27  1.866E-16
1.000E+03  7.242E-27  1.921E-16
9.908E+02  7.526E-27  1.978E-16
9.817E+02  7.821E-27  2.037E-16
9.727E+02  8.127E-27  2.097E-16
9.638E+02  8.445E-27  2.159E-16
9.550E+02  8.775E-27  2.223E-16
9.462E+02  9.118E-27  2.289E-16
9.376E+02  9.474E-27  2.356E-16
9.290E+02  9.844E-27  2.426E-16
9.204E+02  1.023E-26  2.497E-16
9.120E+02  1.063E-26  2.570E-16
9.036E+02  1.104E-26  2.646E-16
8.954E+02  1.147E-26  2.724E-16
8.872E+02  1.191E-26  2.803E-16
8.790E+02  1.237E-26  2.885E-16
8.710E+02  1.285E-26  2.970E-16
8.630E+02  1.335E-26  3.056E-16
8.551E+02  1.387E-26  3.145E-16
8.472E+02  1.440E-26  3.237E-16
8.395E+02  1.496E-26  3.331E-16
8.318E+02  1.553E-26  3.427E-16
8.241E+02  1.613E-26  3.526E-16
8.166E+02  1.675E-26  3.628E-16
8.091E+02  1.739E-26  3.733E-16
8.017E+02  1.806E-26  3.840E-16
7.943E+02  1.875E-26  3.951E-16
7.870E+02  1.947E-26  4.064E-16
7.798E+02  2.021E-26  4.181E-16
7.727E+02  2.098E-26  4.301E-16
7.656E+02  2.178E-26  4.424E-16
7.586E+02  2.261E-26  4.550E-16
7.516E+02  2.347E-26  4.679E-16
7.447E+02  2.436E-26  4.813E-16
7.379E+02  2.529E-26  4.950E-16
7.311E+02  2.625E-26  5.091E-16
7.244E+02  2.725E-26  5.236E-16
7.178E+02  2.828E-26  5.385E-16
7.112E+02  2.936E-26  5.538E-16
7.047E+02  3.047E-26  5.695E-16
6.982E+02  3.162E-26  5.857E-16
6.918E+02  3.282E-26  6.023E-16
6.855E+02  3.406E-26  6.193E-16
6.792E+02  3.535E-26  6.368E-16
6.730E+02  3.668E-26  6.547E-16
6.668E+02  3.806E-26  6.731E-16
6.607E+02  3.949E-26  6.920E-16
6.546E+02  4.097E-26  7.115E-16
6.486E+02  4.252E-26  7.315E-16
6.427E+02  4.412E-26  7.521E-16
6.368E+02  4.578E-26  7.733E-16
6.310E+02  4.750E-26  7.950E-16
6.252E+02  4.928E-26  8.173E-16
6.194E+02  5.113E-26  8.402E-16
6.138E+02  5.305E-26  8.637E-16
6.081E+02  5.504E-26  8.879E-16
6.026E+02  5.710E-26  9.127E-16
5.970E+02  5.924E-26  9.382E-16
5.916E+02  6.146E-26  9.644E-16
5.861E+02  6.375E-26  9.912E-16
5.808E+02  6.613E-26  1.019E-15
5.754E+02  6.860E-26  1.047E-15
5.702E+02  7.116E-26  1.076E-15
5.649E+02  7.381E-26  1.106E-15
5.598E+02  7.655E-26  1.137E-15
5.546E+02  7.940E-26  1.168E-15
5.495E+02  8.235E-26  1.200E-15
5.445E+02  8.540E-26  1.234E-15
5.395E+02  8.857E-26  1.268E-15
5.346E+02  9.185E-26  1.302E-15
5.297E+02  9.525E-26  1.338E-15
5.248E+02  9.877E-26  1.375E-15
5.200E+02  1.024E-25  1.413E-15
5.152E+02  1.062E-25  1.451E-15
5.105E+02  1.101E-25  1.491E-15
5.058E+02  1.142E-25  1.532E-15
5.012E+02  1.183E-25  1.573E-15
4.966E+02  1.227E-25  1.616E-15
4.920E+02  1.272E-25  1.660E-15
4.875E+02  1.318E-25  1.705E-15
4.831E+02  1.367E-25  1.751E-15
4.786E+02  1.417E-25  1.798E-15
4.742E+02  1.468E-25  1.847E-15
4.699E+02  1.522E-25  1.897E-15
4.656E+02  1.577E-25  1.947E-15
4.613E+02  1.634E-25  2.000E-15
4.571E+02  1.693E-25  2.053E-15
4.529E+02  1.755E-25  2.108E-15
4.487E+02  1.818E-25  2.164E-15
4.446E+02  1.884E-25  2.222E-15
4.406E+02  1.951E-25  2.280E-15
4.365E+02  2.021E-25  2.341E-15
4.325E+02  2.094E-25  2.402E-15
4.285E+02  2.169E-25  2.466E-15
4.246E+02  2.247E-25  2.530E-15
4.207E+02  2.327E-25  2.597E-15
4.169E+02  2.410E-25  2.665E-15
4.130E+02  2.495E-25  2.734E-15
4.093E+02  2.584E-25  2.805E-15
4.055E+02  2.676E-25  2.878E-15
4.018E+02  2.770E-25  2.953E-15
3.981E+02  2.868E-25  3.029E-15
3.945E+02  2.969E-25  3.107E-15
3.908E+02  3.074E-25  3.187E-15
3.873E+02  3.182E-25  3.269E-15
3.837E+02  3.294E-25  3.352E-15
3.802E+02  3.409E-25  3.438E-15
3.767E+02  3.528E-25  3.525E-15
3.733E+02  3.651E-25  3.614E-15
3.698E+02  3.777E-25  3.706E-15
3.664E+02  3.908E-25  3.799E-15
3.631E+02  4.044E-25  3.894E-15
3.597E+02  4.183E-25  3.992E-15
3.565E+02  4.327E-25  4.091E-15
3.532E+02  4.476E-25  4.193E-15
3.499E+02  4.629E-25  4.297E-15
3.467E+02  4.787E-25  4.403E-15
3.436E+02  4.950E-25  4.511E-15
3.404E+02  5.119E-25  4.622E-15
3.373E+02  5.292E-25  4.735E-15
3.342E+02  5.471E-25  4.850E-15
3.311E+02  5.655E-25  4.967E-15
3.281E+02  5.845E-25  5.087E-15
3.251E+02  6.041E-25  5.209E-15
3.221E+02  6.243E-25  5.334E-15
3.192E+02  6.451E-25  5.461E-15
3.162E+02  6.665E-25  5.591E-15
3.133E+02  6.885E-25  5.723E-15
3.105E+02  7.113E-25  5.857E-15
3.076E+02  7.347E-25  5.994E-15
3.048E+02  7.587E-25  6.134E-15
3.020E+02  7.835E-25  6.276E-15
2.992E+02  8.090E-25  6.421E-15
2.965E+02  8.352E-25  6.569E-15
2.938E+02  8.622E-25  6.719E-15
2.911E+02  8.900E-25  6.872E-15
2.884E+02  9.185E-25  7.027E-15
2.858E+02  9.479E-25  7.185E-15
2.831E+02  9.781E-25  7.346E-15
2.805E+02  1.009E-24  7.510E-15
2.780E+02  1.041E-24  7.676E-15
2.754E+02  1.074E-24  7.845E-15
2.729E+02  1.108E-24  8.017E-15
2.704E+02  1.142E-24  8.193E-15
2.679E+02  1.178E-24  8.371E-15
2.655E+02  1.215E-24  8.553E-15
2.630E+02  1.252E-24  8.737E-15
2.606E+02  1.291E-24  8.924E-15
2.582E+02  1.331E-24  9.114E-15
2.559E+02  1.371E-24  9.305E-15
2.535E+02  1.412E-24  9.498E-15
2.512E+02  1.455E-24  9.693E-15
2.489E+02  1.497E-24  9.886E-15
2.466E+02  1.540E-24  1.008E-14
2.443E+02  1.584E-24  1.027E-14
2.421E+02  1.629E-24  1.046E-14
2.399E+02  1.674E-24  1.065E-14
2.377E+02  1.719E-24  1.084E-14
2.355E+02  1.765E-24  1.103E-14
2.333E+02  1.813E-24  1.122E-14
2.312E+02  1.861E-24  1.141E-14
2.291E+02  1.910E-24  1.161E-14
2.270E+02  1.961E-24  1.180E-14
2.249E+02  2.012E-24  1.200E-14
2.228E+02  2.064E-24  1.220E-14
2.208E+02  2.117E-24  1.240E-14
2.188E+02  2.172E-24  1.260E-14
2.168E+02  2.227E-24  1.280E-14
2.148E+02  2.283E-24  1.301E-14
2.128E+02  2.340E-24  1.321E-14
2.109E+02  2.399E-24  1.342E-14
2.089E+02  2.458E-24  1.362E-14
2.070E+02  2.519E-24  1.383E-14
2.051E+02  2.580E-24  1.404E-14
2.032E+02  2.642E-24  1.425E-14
2.014E+02  2.706E-24  1.445E-14
1.995E+02  2.771E-24  1.466E-14
1.977E+02  2.836E-24  1.487E-14
1.959E+02  2.903E-24  1.508E-14
1.941E+02  2.971E-24  1.529E-14
1.923E+02  3.039E-24  1.550E-14
1.905E+02  3.109E-24  1.572E-14
1.888E+02  3.180E-24  1.593E-14
1.871E+02  3.253E-24  1.614E-14
1.854E+02  3.326E-24  1.635E-14
1.837E+02  3.400E-24  1.656E-14
1.820E+02  3.476E-24  1.678E-14
1.803E+02  3.552E-24  1.699E-14
1.786E+02  3.630E-24  1.720E-14
1.770E+02  3.709E-24  1.742E-14
1.754E+02  3.789E-24  1.763E-14
1.738E+02  3.871E-24  1.784E-14
1.722E+02  3.953E-24  1.806E-14
1.706E+02  4.037E-24  1.827E-14
1.690E+02  4.123E-24  1.849E-14
1.675E+02  4.209E-24  1.870E-14
1.660E+02  4.297E-24  1.892E-14
1.644E+02  4.387E-24  1.913E-14
1.629E+02  4.478E-24  1.935E-14
1.614E+02  4.571E-24  1.957E-14
1.600E+02  4.665E-24  1.979E-14
1.585E+02  4.761E-24  2.001E-14
1.570E+02  4.859E-24  2.024E-14
1.556E+02  4.959E-24  2.047E-14
1.542E+02  5.060E-24  2.069E-14
1.528E+02  5.164E-24  2.092E-14
1.514E+02  5.270E-24  2.116E-14
1.500E+02  5.377E-24  2.139E-14
1.486E+02  5.486E-24  2.162E-14
1.472E+02  5.597E-24  2.186E-14
1.459E+02  5.708E-24  2.209E-14
1.445E+02  5.818E-24  2.231E-14
1.432E+02  5.927E-24  2.252E-14
1.419E+02  6.032E-24  2.270E-14
1.406E+02  6.130E-24  2.286E-14
1.393E+02  6.222E-24  2.299E-14
1.380E+02  6.305E-24  2.309E-14
1.368E+02  6.381E-24  2.315E-14
1.355E+02  6.449E-24  2.318E-14
1.343E+02  6.513E-24  2.320E-14
1.330E+02  6.574E-24  2.320E-14
1.318E+02  6.633E-24  2.320E-14
1.306E+02  6.693E-24  2.319E-14
1.294E+02  6.753E-24  2.318E-14
1.282E+02  6.815E-24  2.318E-14
1.271E+02  6.877E-24  2.318E-14
1.259E+02  6.942E-24  2.318E-14
1.247E+02  7.007E-24  2.319E-14
1.236E+02  7.075E-24  2.319E-14
1.225E+02  7.144E-24  2.321E-14
1.213E+02  7.214E-24  2.322E-14
1.202E+02  7.286E-24  2.324E-14
1.191E+02  7.359E-24  2.325E-14
1.180E+02  7.432E-24  2.327E-14
1.169E+02  7.506E-24  2.328E-14
1.159E+02  7.580E-24  2.330E-14
1.148E+02  7.655E-24  2.331E-14
1.138E+02  7.731E-24  2.333E-14
1.127E+02  7.808E-24  2.335E-14
1.117E+02  7.885E-24  2.336E-14
1.107E+02  7.963E-24  2.337E-14
1.096E+02  8.041E-24  2.339E-14
1.086E+02  8.120E-24  2.340E-14
1.076E+02  8.198E-24  2.341E-14
1.067E+02  8.277E-24  2.342E-14
1.057E+02  8.356E-24  2.342E-14
1.047E+02  8.435E-24  2.343E-14
1.038E+02  8.514E-24  2.343E-14
1.028E+02  8.593E-24  2.343E-14
1.019E+02  8.671E-24  2.343E-14
1.009E+02  8.749E-24  2.342E-14
1.000E+02  8.827E-24  2.341E-14
9.908E+01  8.904E-24  2.340E-14
9.817E+01  8.980E-24  2.339E-14
9.727E+01  9.057E-24  2.337E-14
9.638E+01  9.132E-24  2.335E-14
9.550E+01  9.208E-24  2.332E-14
9.462E+01  9.282E-24  2.330E-14
9.376E+01  9.356E-24  2.327E-14
9.290E+01  9.429E-24  2.323E-14
9.204E+01  9.502E-24  2.320E-14
9.120E+01  9.574E-24  2.316E-14
9.036E+01  9.645E-24  2.312E-14
8.954E+01  9.716E-24  2.308E-14
8.872E+01  9.787E-24  2.303E-14
8.790E+01  9.857E-24  2.298E-14
8.710E+01  9.927E-24  2.293E-14
8.630E+01  9.997E-24  2.288E-14
8.551E+01  1.007E-23  2.283E-14
8.472E+01  1.013E-23  2.277E-14
8.395E+01  1.020E-23  2.272E-14
8.318E+01  1.027E-23  2.266E-14
8.241E+01  1.034E-23  2.260E-14
8.166E+01  1.040E-23  2.254E-14
8.091E+01  1.047E-23  2.247E-14
8.017E+01  1.054E-23  2.241E-14
7.943E+01  1.060E-23  2.234E-14
7.870E+01  1.067E-23  2.227E-14
7.798E+01  1.073E-23  2.220E-14
7.727E+01  1.080E-23  2.213E-14
7.656E+01  1.086E-23  2.206E-14
7.586E+01  1.092E-23  2.198E-14
7.516E+01  1.099E-23  2.191E-14
7.447E+01  1.105E-23  2.183E-14
7.379E+01  1.111E-23  2.175E-14
7.311E+01  1.117E-23  2.167E-14
7.244E+01  1.124E-23  2.159E-14
7.178E+01  1.130E-23  2.151E-14
7.112E+01  1.136E-23  2.143E-14
7.047E+01  1.142E-23  2.135E-14
6.982E+01  1.148E-23  2.127E-14
6.918E+01  1.155E-23  2.119E-14
6.855E+01  1.161E-23  2.111E-14
6.792E+01  1.167E-23  2.102E-14
6.730E+01  1.173E-23  2.094E-14
6.668E+01  1.179E-23  2.086E-14
6.607E+01  1.186E-23  2.078E-14
6.546E+01  1.192E-23  2.070E-14
6.486E+01  1.198E-23  2.062E-14
