Dust emission from Draine & Li (2007): ApJ 657, 810-837
================================================================
         8 = grain model
 4.000E-08 4.000E-01 0.000E+00 = a_01 (cm) , sigma_1 , b_C1/0.92
 2.500E-07 4.000E-01 0.000E+00 = a_02 (cm) , sigma_2 , b_C2/0.92
 2.000E-01 1.000E+06 2.000E+00 = Umin , Umax, beta (dN/dU propto U^{-beta})
 3.085E+00 = <U> 
     mmp83 = radfield
 1.965E-24 = power/H (erg s-1)
 band   nu*P_nu(band) j_nu(band)
 (um)   (erg s-1 H-1)(Jy cm2 sr-1 H-1)
1.270E+00  4.286E-27  1.444E-19 COBE-DIRBE
2.220E+00  7.401E-27  4.358E-19 COBE-DIRBE
3.530E+00  8.224E-27  7.701E-19 COBE-DIRBE
4.880E+00  8.201E-27  1.062E-18 COBE-DIRBE
1.229E+01  2.061E-25  6.718E-17 COBE-DIRBE
2.079E+01  6.199E-25  3.419E-16 COBE-DIRBE
5.599E+01  7.828E-25  1.163E-15 COBE-DIRBE
9.770E+01  6.655E-25  1.725E-15 COBE-DIRBE
1.479E+02  5.087E-25  1.996E-15 COBE-DIRBE
2.479E+02  2.153E-25  1.416E-15 COBE-DIRBE
1.200E+01  1.762E-25  5.608E-17 IRAS
2.500E+01  6.845E-25  4.539E-16 IRAS
6.000E+01  7.735E-25  1.231E-15 IRAS
1.000E+02  6.582E-25  1.746E-15 IRAS
3.550E+00  8.237E-27  7.757E-19 SST-IRAC
4.493E+00  8.137E-27  9.698E-19 SST-IRAC
5.731E+00  9.321E-27  1.417E-18 SST-IRAC
7.872E+00  6.723E-26  1.404E-17 SST-IRAC
2.368E+01  6.700E-25  4.209E-16 SST-MIPS
7.142E+01  6.780E-25  1.284E-15 SST-MIPS
1.559E+02  4.589E-25  1.898E-15 SST-MIPS
1.600E+01  3.129E-25  1.328E-16 SST-IRSPU
2.200E+01  6.863E-25  4.005E-16 SST-IRSPU











lambda    nu*dP/dnu     j_nu
 (um)   (erg s-1 H-1)(Jy cm2 sr-1 H-1)
1.000E+04  1.514E-31  4.016E-20
9.908E+03  1.569E-31  4.123E-20
9.817E+03  1.626E-31  4.233E-20
9.727E+03  1.684E-31  4.346E-20
9.638E+03  1.745E-31  4.462E-20
9.550E+03  1.808E-31  4.581E-20
9.462E+03  1.874E-31  4.703E-20
9.376E+03  1.941E-31  4.828E-20
9.290E+03  2.012E-31  4.957E-20
9.204E+03  2.084E-31  5.089E-20
9.120E+03  2.160E-31  5.225E-20
9.036E+03  2.238E-31  5.364E-20
8.954E+03  2.318E-31  5.506E-20
8.872E+03  2.401E-31  5.651E-20
8.790E+03  2.488E-31  5.801E-20
8.710E+03  2.577E-31  5.954E-20
8.630E+03  2.670E-31  6.112E-20
8.551E+03  2.766E-31  6.274E-20
8.472E+03  2.866E-31  6.440E-20
8.395E+03  2.969E-31  6.611E-20
8.318E+03  3.076E-31  6.786E-20
8.241E+03  3.187E-31  6.967E-20
8.166E+03  3.302E-31  7.152E-20
8.091E+03  3.421E-31  7.342E-20
8.017E+03  3.545E-31  7.538E-20
7.943E+03  3.673E-31  7.739E-20
7.870E+03  3.806E-31  7.945E-20
7.798E+03  3.944E-31  8.157E-20
7.727E+03  4.086E-31  8.375E-20
7.656E+03  4.234E-31  8.599E-20
7.586E+03  4.388E-31  8.829E-20
7.516E+03  4.547E-31  9.066E-20
7.447E+03  4.712E-31  9.309E-20
7.379E+03  4.883E-31  9.558E-20
7.311E+03  5.061E-31  9.815E-20
7.244E+03  5.245E-31  1.008E-19
7.178E+03  5.436E-31  1.035E-19
7.112E+03  5.633E-31  1.063E-19
7.047E+03  5.839E-31  1.091E-19
6.982E+03  6.051E-31  1.121E-19
6.918E+03  6.271E-31  1.151E-19
6.855E+03  6.499E-31  1.182E-19
6.792E+03  6.736E-31  1.214E-19
6.730E+03  6.981E-31  1.246E-19
6.668E+03  7.236E-31  1.280E-19
6.607E+03  7.500E-31  1.314E-19
6.546E+03  7.774E-31  1.350E-19
6.486E+03  8.058E-31  1.386E-19
6.427E+03  8.352E-31  1.424E-19
6.368E+03  8.658E-31  1.462E-19
6.310E+03  8.974E-31  1.502E-19
6.252E+03  9.303E-31  1.543E-19
6.194E+03  9.644E-31  1.585E-19
6.138E+03  9.997E-31  1.628E-19
6.081E+03  1.036E-30  1.672E-19
6.026E+03  1.074E-30  1.717E-19
5.970E+03  1.114E-30  1.764E-19
5.916E+03  1.155E-30  1.812E-19
5.861E+03  1.197E-30  1.861E-19
5.808E+03  1.241E-30  1.912E-19
5.754E+03  1.287E-30  1.964E-19
5.702E+03  1.334E-30  2.018E-19
5.649E+03  1.383E-30  2.073E-19
5.598E+03  1.434E-30  2.130E-19
5.546E+03  1.487E-30  2.188E-19
5.495E+03  1.542E-30  2.248E-19
5.445E+03  1.599E-30  2.310E-19
5.395E+03  1.658E-30  2.373E-19
5.346E+03  1.720E-30  2.438E-19
5.297E+03  1.783E-30  2.505E-19
5.248E+03  1.849E-30  2.574E-19
5.200E+03  1.917E-30  2.645E-19
5.152E+03  1.988E-30  2.718E-19
5.105E+03  2.062E-30  2.792E-19
5.058E+03  2.139E-30  2.869E-19
5.012E+03  2.218E-30  2.948E-19
4.966E+03  2.300E-30  3.030E-19
4.920E+03  2.385E-30  3.113E-19
4.875E+03  2.474E-30  3.199E-19
4.831E+03  2.566E-30  3.287E-19
4.786E+03  2.661E-30  3.378E-19
4.742E+03  2.760E-30  3.472E-19
4.699E+03  2.862E-30  3.568E-19
4.656E+03  2.969E-30  3.667E-19
4.613E+03  3.079E-30  3.768E-19
4.571E+03  3.194E-30  3.873E-19
4.529E+03  3.313E-30  3.980E-19
4.487E+03  3.437E-30  4.091E-19
4.446E+03  3.565E-30  4.205E-19
4.406E+03  3.698E-30  4.322E-19
4.365E+03  3.836E-30  4.442E-19
4.325E+03  3.980E-30  4.566E-19
4.285E+03  4.129E-30  4.693E-19
4.246E+03  4.283E-30  4.824E-19
4.207E+03  4.443E-30  4.959E-19
4.169E+03  4.610E-30  5.098E-19
4.130E+03  4.783E-30  5.240E-19
4.093E+03  4.962E-30  5.387E-19
4.055E+03  5.148E-30  5.538E-19
4.018E+03  5.341E-30  5.693E-19
3.981E+03  5.542E-30  5.852E-19
3.945E+03  5.750E-30  6.016E-19
3.908E+03  5.965E-30  6.184E-19
3.873E+03  6.189E-30  6.358E-19
3.837E+03  6.422E-30  6.536E-19
3.802E+03  6.663E-30  6.720E-19
3.767E+03  6.914E-30  6.908E-19
3.733E+03  7.174E-30  7.103E-19
3.698E+03  7.444E-30  7.303E-19
3.664E+03  7.725E-30  7.509E-19
3.631E+03  8.016E-30  7.720E-19
3.597E+03  8.319E-30  7.938E-19
3.565E+03  8.633E-30  8.162E-19
3.532E+03  8.959E-30  8.393E-19
3.499E+03  9.298E-30  8.631E-19
3.467E+03  9.649E-30  8.875E-19
3.436E+03  1.001E-29  9.126E-19
3.404E+03  1.039E-29  9.385E-19
3.373E+03  1.079E-29  9.652E-19
3.342E+03  1.120E-29  9.926E-19
3.311E+03  1.162E-29  1.021E-18
3.281E+03  1.206E-29  1.050E-18
3.251E+03  1.252E-29  1.080E-18
3.221E+03  1.300E-29  1.110E-18
3.192E+03  1.349E-29  1.142E-18
3.162E+03  1.400E-29  1.175E-18
3.133E+03  1.454E-29  1.208E-18
3.105E+03  1.509E-29  1.243E-18
3.076E+03  1.567E-29  1.278E-18
3.048E+03  1.626E-29  1.315E-18
3.020E+03  1.688E-29  1.352E-18
2.992E+03  1.753E-29  1.391E-18
2.965E+03  1.819E-29  1.431E-18
2.938E+03  1.888E-29  1.472E-18
2.911E+03  1.960E-29  1.514E-18
2.884E+03  2.035E-29  1.557E-18
2.858E+03  2.113E-29  1.601E-18
2.831E+03  2.193E-29  1.647E-18
2.805E+03  2.277E-29  1.694E-18
2.780E+03  2.364E-29  1.743E-18
2.754E+03  2.454E-29  1.793E-18
2.729E+03  2.548E-29  1.844E-18
2.704E+03  2.645E-29  1.897E-18
2.679E+03  2.746E-29  1.952E-18
2.655E+03  2.851E-29  2.008E-18
2.630E+03  2.960E-29  2.066E-18
2.606E+03  3.074E-29  2.125E-18
2.582E+03  3.192E-29  2.186E-18
2.559E+03  3.314E-29  2.249E-18
2.535E+03  3.441E-29  2.314E-18
2.512E+03  3.573E-29  2.381E-18
2.489E+03  3.710E-29  2.450E-18
2.466E+03  3.853E-29  2.520E-18
2.443E+03  4.001E-29  2.593E-18
2.421E+03  4.155E-29  2.668E-18
2.399E+03  4.314E-29  2.745E-18
2.377E+03  4.480E-29  2.825E-18
2.355E+03  4.653E-29  2.906E-18
2.333E+03  4.832E-29  2.991E-18
2.312E+03  5.018E-29  3.077E-18
2.291E+03  5.211E-29  3.166E-18
2.270E+03  5.411E-29  3.258E-18
2.249E+03  5.620E-29  3.353E-18
2.228E+03  5.837E-29  3.450E-18
2.208E+03  6.061E-29  3.550E-18
2.188E+03  6.295E-29  3.653E-18
2.168E+03  6.538E-29  3.759E-18
2.148E+03  6.790E-29  3.869E-18
2.128E+03  7.052E-29  3.981E-18
2.109E+03  7.324E-29  4.097E-18
2.089E+03  7.607E-29  4.216E-18
2.070E+03  7.900E-29  4.338E-18
2.051E+03  8.205E-29  4.464E-18
2.032E+03  8.522E-29  4.594E-18
2.014E+03  8.851E-29  4.728E-18
1.995E+03  9.192E-29  4.865E-18
1.977E+03  9.547E-29  5.007E-18
1.959E+03  9.915E-29  5.152E-18
1.941E+03  1.030E-28  5.302E-18
1.923E+03  1.070E-28  5.456E-18
1.905E+03  1.111E-28  5.614E-18
1.888E+03  1.154E-28  5.778E-18
1.871E+03  1.198E-28  5.946E-18
1.854E+03  1.244E-28  6.119E-18
1.837E+03  1.293E-28  6.297E-18
1.820E+03  1.342E-28  6.480E-18
1.803E+03  1.394E-28  6.668E-18
1.786E+03  1.448E-28  6.862E-18
1.770E+03  1.504E-28  7.062E-18
1.754E+03  1.562E-28  7.267E-18
1.738E+03  1.622E-28  7.478E-18
1.722E+03  1.685E-28  7.696E-18
1.706E+03  1.750E-28  7.919E-18
1.690E+03  1.817E-28  8.149E-18
1.675E+03  1.888E-28  8.386E-18
1.660E+03  1.960E-28  8.630E-18
1.644E+03  2.036E-28  8.880E-18
1.629E+03  2.114E-28  9.138E-18
1.614E+03  2.196E-28  9.403E-18
1.600E+03  2.281E-28  9.676E-18
1.585E+03  2.368E-28  9.957E-18
1.570E+03  2.460E-28  1.025E-17
1.556E+03  2.554E-28  1.054E-17
1.542E+03  2.653E-28  1.085E-17
1.528E+03  2.755E-28  1.116E-17
1.514E+03  2.861E-28  1.148E-17
1.500E+03  2.971E-28  1.182E-17
1.486E+03  3.085E-28  1.216E-17
1.472E+03  3.203E-28  1.251E-17
1.459E+03  3.327E-28  1.287E-17
1.445E+03  3.454E-28  1.324E-17
1.432E+03  3.587E-28  1.363E-17
1.419E+03  3.725E-28  1.402E-17
1.406E+03  3.868E-28  1.443E-17
1.393E+03  4.016E-28  1.484E-17
1.380E+03  4.170E-28  1.527E-17
1.368E+03  4.330E-28  1.571E-17
1.355E+03  4.496E-28  1.616E-17
1.343E+03  4.669E-28  1.663E-17
1.330E+03  4.847E-28  1.711E-17
1.318E+03  5.033E-28  1.760E-17
1.306E+03  5.225E-28  1.810E-17
1.294E+03  5.425E-28  1.862E-17
1.282E+03  5.632E-28  1.916E-17
1.271E+03  5.847E-28  1.971E-17
1.259E+03  6.070E-28  2.027E-17
1.247E+03  6.301E-28  2.085E-17
1.236E+03  6.541E-28  2.145E-17
1.225E+03  6.790E-28  2.206E-17
1.213E+03  7.049E-28  2.269E-17
1.202E+03  7.317E-28  2.333E-17
1.191E+03  7.594E-28  2.400E-17
1.180E+03  7.882E-28  2.468E-17
1.169E+03  8.181E-28  2.538E-17
1.159E+03  8.491E-28  2.610E-17
1.148E+03  8.813E-28  2.684E-17
1.138E+03  9.146E-28  2.760E-17
1.127E+03  9.491E-28  2.838E-17
1.117E+03  9.850E-28  2.918E-17
1.107E+03  1.022E-27  3.000E-17
1.096E+03  1.061E-27  3.085E-17
1.086E+03  1.101E-27  3.172E-17
1.076E+03  1.142E-27  3.261E-17
1.067E+03  1.185E-27  3.352E-17
1.057E+03  1.229E-27  3.446E-17
1.047E+03  1.275E-27  3.542E-17
1.038E+03  1.323E-27  3.641E-17
1.028E+03  1.373E-27  3.743E-17
1.019E+03  1.424E-27  3.847E-17
1.009E+03  1.477E-27  3.954E-17
1.000E+03  1.532E-27  4.063E-17
9.908E+02  1.589E-27  4.176E-17
9.817E+02  1.648E-27  4.292E-17
9.727E+02  1.710E-27  4.411E-17
9.638E+02  1.773E-27  4.533E-17
9.550E+02  1.839E-27  4.658E-17
9.462E+02  1.907E-27  4.787E-17
9.376E+02  1.978E-27  4.918E-17
9.290E+02  2.051E-27  5.053E-17
9.204E+02  2.126E-27  5.192E-17
9.120E+02  2.205E-27  5.334E-17
9.036E+02  2.286E-27  5.479E-17
8.954E+02  2.370E-27  5.629E-17
8.872E+02  2.457E-27  5.782E-17
8.790E+02  2.547E-27  5.938E-17
8.710E+02  2.640E-27  6.099E-17
8.630E+02  2.736E-27  6.263E-17
8.551E+02  2.836E-27  6.432E-17
8.472E+02  2.939E-27  6.604E-17
8.395E+02  3.045E-27  6.781E-17
8.318E+02  3.156E-27  6.963E-17
8.241E+02  3.270E-27  7.148E-17
8.166E+02  3.388E-27  7.338E-17
8.091E+02  3.510E-27  7.533E-17
8.017E+02  3.636E-27  7.732E-17
7.943E+02  3.766E-27  7.936E-17
7.870E+02  3.901E-27  8.145E-17
7.798E+02  4.041E-27  8.358E-17
7.727E+02  4.185E-27  8.577E-17
7.656E+02  4.334E-27  8.801E-17
7.586E+02  4.488E-27  9.031E-17
7.516E+02  4.647E-27  9.266E-17
7.447E+02  4.812E-27  9.507E-17
7.379E+02  4.983E-27  9.754E-17
7.311E+02  5.160E-27  1.001E-16
7.244E+02  5.343E-27  1.027E-16
7.178E+02  5.532E-27  1.053E-16
7.112E+02  5.727E-27  1.080E-16
7.047E+02  5.929E-27  1.108E-16
6.982E+02  6.138E-27  1.137E-16
6.918E+02  6.354E-27  1.166E-16
6.855E+02  6.577E-27  1.196E-16
6.792E+02  6.808E-27  1.227E-16
6.730E+02  7.046E-27  1.258E-16
6.668E+02  7.292E-27  1.290E-16
6.607E+02  7.546E-27  1.322E-16
6.546E+02  7.809E-27  1.356E-16
6.486E+02  8.082E-27  1.391E-16
6.427E+02  8.364E-27  1.426E-16
6.368E+02  8.656E-27  1.462E-16
6.310E+02  8.958E-27  1.499E-16
6.252E+02  9.269E-27  1.537E-16
6.194E+02  9.592E-27  1.576E-16
6.138E+02  9.924E-27  1.616E-16
6.081E+02  1.027E-26  1.656E-16
6.026E+02  1.062E-26  1.698E-16
5.970E+02  1.099E-26  1.741E-16
5.916E+02  1.137E-26  1.784E-16
5.861E+02  1.176E-26  1.829E-16
5.808E+02  1.217E-26  1.875E-16
5.754E+02  1.259E-26  1.921E-16
5.702E+02  1.302E-26  1.969E-16
5.649E+02  1.347E-26  2.018E-16
5.598E+02  1.393E-26  2.068E-16
5.546E+02  1.441E-26  2.119E-16
5.495E+02  1.490E-26  2.172E-16
5.445E+02  1.541E-26  2.225E-16
5.395E+02  1.593E-26  2.280E-16
5.346E+02  1.647E-26  2.336E-16
5.297E+02  1.703E-26  2.393E-16
5.248E+02  1.761E-26  2.452E-16
5.200E+02  1.821E-26  2.512E-16
5.152E+02  1.883E-26  2.573E-16
5.105E+02  1.946E-26  2.635E-16
5.058E+02  2.012E-26  2.699E-16
5.012E+02  2.080E-26  2.765E-16
4.966E+02  2.149E-26  2.831E-16
4.920E+02  2.221E-26  2.899E-16
4.875E+02  2.296E-26  2.969E-16
4.831E+02  2.373E-26  3.040E-16
4.786E+02  2.452E-26  3.113E-16
4.742E+02  2.533E-26  3.187E-16
4.699E+02  2.617E-26  3.262E-16
4.656E+02  2.704E-26  3.340E-16
4.613E+02  2.794E-26  3.418E-16
4.571E+02  2.886E-26  3.499E-16
4.529E+02  2.981E-26  3.581E-16
4.487E+02  3.079E-26  3.665E-16
4.446E+02  3.180E-26  3.750E-16
4.406E+02  3.284E-26  3.838E-16
4.365E+02  3.391E-26  3.927E-16
4.325E+02  3.501E-26  4.017E-16
4.285E+02  3.615E-26  4.110E-16
4.246E+02  3.733E-26  4.204E-16
4.207E+02  3.853E-26  4.300E-16
4.169E+02  3.977E-26  4.398E-16
4.130E+02  4.105E-26  4.498E-16
4.093E+02  4.237E-26  4.599E-16
4.055E+02  4.373E-26  4.703E-16
4.018E+02  4.512E-26  4.809E-16
3.981E+02  4.656E-26  4.917E-16
3.945E+02  4.804E-26  5.027E-16
3.908E+02  4.957E-26  5.139E-16
3.873E+02  5.114E-26  5.253E-16
3.837E+02  5.275E-26  5.369E-16
3.802E+02  5.441E-26  5.487E-16
3.767E+02  5.611E-26  5.607E-16
3.733E+02  5.787E-26  5.729E-16
3.698E+02  5.967E-26  5.854E-16
3.664E+02  6.153E-26  5.981E-16
3.631E+02  6.344E-26  6.110E-16
3.597E+02  6.539E-26  6.240E-16
3.565E+02  6.740E-26  6.373E-16
3.532E+02  6.947E-26  6.508E-16
3.499E+02  7.159E-26  6.646E-16
3.467E+02  7.377E-26  6.785E-16
3.436E+02  7.601E-26  6.927E-16
3.404E+02  7.831E-26  7.071E-16
3.373E+02  8.068E-26  7.218E-16
3.342E+02  8.310E-26  7.367E-16
3.311E+02  8.559E-26  7.517E-16
3.281E+02  8.813E-26  7.670E-16
3.251E+02  9.074E-26  7.825E-16
3.221E+02  9.342E-26  7.982E-16
3.192E+02  9.618E-26  8.142E-16
3.162E+02  9.900E-26  8.304E-16
3.133E+02  1.019E-25  8.467E-16
3.105E+02  1.048E-25  8.633E-16
3.076E+02  1.079E-25  8.801E-16
3.048E+02  1.110E-25  8.972E-16
3.020E+02  1.142E-25  9.145E-16
2.992E+02  1.174E-25  9.319E-16
2.965E+02  1.207E-25  9.496E-16
2.938E+02  1.242E-25  9.675E-16
2.911E+02  1.277E-25  9.856E-16
2.884E+02  1.312E-25  1.004E-15
2.858E+02  1.349E-25  1.022E-15
2.831E+02  1.386E-25  1.041E-15
2.805E+02  1.424E-25  1.060E-15
2.780E+02  1.463E-25  1.079E-15
2.754E+02  1.503E-25  1.098E-15
2.729E+02  1.544E-25  1.118E-15
2.704E+02  1.586E-25  1.138E-15
2.679E+02  1.629E-25  1.158E-15
2.655E+02  1.673E-25  1.178E-15
2.630E+02  1.717E-25  1.198E-15
2.606E+02  1.763E-25  1.219E-15
2.582E+02  1.810E-25  1.240E-15
2.559E+02  1.857E-25  1.260E-15
2.535E+02  1.905E-25  1.281E-15
2.512E+02  1.953E-25  1.301E-15
2.489E+02  2.001E-25  1.321E-15
2.466E+02  2.048E-25  1.340E-15
2.443E+02  2.096E-25  1.358E-15
2.421E+02  2.143E-25  1.376E-15
2.399E+02  2.191E-25  1.394E-15
2.377E+02  2.238E-25  1.411E-15
2.355E+02  2.285E-25  1.428E-15
2.333E+02  2.334E-25  1.444E-15
2.312E+02  2.382E-25  1.461E-15
2.291E+02  2.431E-25  1.477E-15
2.270E+02  2.481E-25  1.494E-15
2.249E+02  2.531E-25  1.510E-15
2.228E+02  2.581E-25  1.526E-15
2.208E+02  2.632E-25  1.542E-15
2.188E+02  2.684E-25  1.557E-15
2.168E+02  2.736E-25  1.573E-15
2.148E+02  2.788E-25  1.588E-15
2.128E+02  2.841E-25  1.604E-15
2.109E+02  2.894E-25  1.619E-15
2.089E+02  2.947E-25  1.633E-15
2.070E+02  3.001E-25  1.648E-15
2.051E+02  3.055E-25  1.662E-15
2.032E+02  3.109E-25  1.676E-15
2.014E+02  3.164E-25  1.690E-15
1.995E+02  3.218E-25  1.703E-15
1.977E+02  3.274E-25  1.717E-15
1.959E+02  3.329E-25  1.730E-15
1.941E+02  3.384E-25  1.742E-15
1.923E+02  3.440E-25  1.755E-15
1.905E+02  3.495E-25  1.767E-15
1.888E+02  3.552E-25  1.779E-15
1.871E+02  3.608E-25  1.790E-15
1.854E+02  3.664E-25  1.801E-15
1.837E+02  3.720E-25  1.812E-15
1.820E+02  3.777E-25  1.823E-15
1.803E+02  3.833E-25  1.833E-15
1.786E+02  3.890E-25  1.843E-15
1.770E+02  3.947E-25  1.853E-15
1.754E+02  4.004E-25  1.863E-15
1.738E+02  4.061E-25  1.872E-15
1.722E+02  4.118E-25  1.881E-15
1.706E+02  4.175E-25  1.889E-15
1.690E+02  4.232E-25  1.898E-15
1.675E+02  4.290E-25  1.906E-15
1.660E+02  4.347E-25  1.914E-15
1.644E+02  4.405E-25  1.922E-15
1.629E+02  4.464E-25  1.929E-15
1.614E+02  4.522E-25  1.937E-15
1.600E+02  4.582E-25  1.944E-15
1.585E+02  4.642E-25  1.951E-15
1.570E+02  4.703E-25  1.959E-15
1.556E+02  4.764E-25  1.966E-15
1.542E+02  4.827E-25  1.974E-15
1.528E+02  4.891E-25  1.982E-15
1.514E+02  4.956E-25  1.990E-15
1.500E+02  5.023E-25  1.998E-15
1.486E+02  5.093E-25  2.007E-15
1.472E+02  5.164E-25  2.017E-15
1.459E+02  5.236E-25  2.026E-15
1.445E+02  5.308E-25  2.035E-15
1.432E+02  5.379E-25  2.043E-15
1.419E+02  5.446E-25  2.050E-15
1.406E+02  5.507E-25  2.054E-15
1.393E+02  5.561E-25  2.055E-15
1.380E+02  5.605E-25  2.052E-15
1.368E+02  5.642E-25  2.047E-15
1.355E+02  5.671E-25  2.039E-15
1.343E+02  5.695E-25  2.029E-15
1.330E+02  5.717E-25  2.018E-15
1.318E+02  5.738E-25  2.006E-15
1.306E+02  5.759E-25  1.995E-15
1.294E+02  5.781E-25  1.985E-15
1.282E+02  5.805E-25  1.975E-15
1.271E+02  5.830E-25  1.965E-15
1.259E+02  5.857E-25  1.956E-15
1.247E+02  5.884E-25  1.947E-15
1.236E+02  5.912E-25  1.938E-15
1.225E+02  5.942E-25  1.930E-15
1.213E+02  5.972E-25  1.922E-15
1.202E+02  6.002E-25  1.914E-15
1.191E+02  6.033E-25  1.906E-15
1.180E+02  6.064E-25  1.898E-15
1.169E+02  6.094E-25  1.890E-15
1.159E+02  6.124E-25  1.882E-15
1.148E+02  6.154E-25  1.874E-15
1.138E+02  6.185E-25  1.866E-15
1.127E+02  6.214E-25  1.858E-15
1.117E+02  6.245E-25  1.850E-15
1.107E+02  6.276E-25  1.842E-15
1.096E+02  6.306E-25  1.834E-15
1.086E+02  6.337E-25  1.826E-15
1.076E+02  6.367E-25  1.818E-15
1.067E+02  6.397E-25  1.810E-15
1.057E+02  6.427E-25  1.802E-15
1.047E+02  6.456E-25  1.793E-15
1.038E+02  6.486E-25  1.785E-15
1.028E+02  6.514E-25  1.776E-15
1.019E+02  6.542E-25  1.768E-15
1.009E+02  6.570E-25  1.759E-15
1.000E+02  6.597E-25  1.750E-15
9.908E+01  6.624E-25  1.741E-15
9.817E+01  6.650E-25  1.732E-15
9.727E+01  6.676E-25  1.722E-15
9.638E+01  6.701E-25  1.713E-15
9.550E+01  6.726E-25  1.704E-15
9.462E+01  6.751E-25  1.695E-15
9.376E+01  6.776E-25  1.685E-15
9.290E+01  6.800E-25  1.676E-15
9.204E+01  6.824E-25  1.666E-15
9.120E+01  6.847E-25  1.656E-15
9.036E+01  6.870E-25  1.647E-15
8.954E+01  6.893E-25  1.637E-15
8.872E+01  6.915E-25  1.627E-15
8.790E+01  6.938E-25  1.618E-15
8.710E+01  6.961E-25  1.608E-15
8.630E+01  6.983E-25  1.599E-15
8.551E+01  7.006E-25  1.589E-15
8.472E+01  7.027E-25  1.579E-15
8.395E+01  7.049E-25  1.570E-15
8.318E+01  7.070E-25  1.560E-15
8.241E+01  7.090E-25  1.550E-15
8.166E+01  7.111E-25  1.540E-15
8.091E+01  7.133E-25  1.531E-15
8.017E+01  7.153E-25  1.521E-15
7.943E+01  7.173E-25  1.511E-15
7.870E+01  7.193E-25  1.502E-15
7.798E+01  7.213E-25  1.492E-15
7.727E+01  7.232E-25  1.482E-15
7.656E+01  7.252E-25  1.473E-15
7.586E+01  7.271E-25  1.463E-15
7.516E+01  7.291E-25  1.454E-15
7.447E+01  7.309E-25  1.444E-15
7.379E+01  7.327E-25  1.434E-15
7.311E+01  7.345E-25  1.425E-15
7.244E+01  7.362E-25  1.415E-15
7.178E+01  7.379E-25  1.405E-15
7.112E+01  7.396E-25  1.395E-15
7.047E+01  7.414E-25  1.386E-15
6.982E+01  7.433E-25  1.377E-15
6.918E+01  7.451E-25  1.367E-15
6.855E+01  7.467E-25  1.358E-15
6.792E+01  7.483E-25  1.348E-15
6.730E+01  7.499E-25  1.339E-15
6.668E+01  7.516E-25  1.329E-15
6.607E+01  7.533E-25  1.320E-15
6.546E+01  7.549E-25  1.311E-15
6.486E+01  7.565E-25  1.302E-15
6.427E+01  7.581E-25  1.292E-15
6.368E+01  7.596E-25  1.283E-15
6.310E+01  7.613E-25  1.274E-15
6.252E+01  7.629E-25  1.265E-15
6.194E+01  7.645E-25  1.256E-15
6.138E+01  7.661E-25  1.247E-15
6.081E+01  7.677E-25  1.238E-15
6.026E+01  7.693E-25  1.230E-15
5.970E+01  7.708E-25  1.221E-15
5.916E+01  7.723E-25  1.212E-15
5.861E+01  7.738E-25  1.203E-15
5.808E+01  7.752E-25  1.194E-15
5.754E+01  7.766E-25  1.185E-15
5.702E+01  7.780E-25  1.177E-15
5.649E+01  7.794E-25  1.168E-15
5.598E+01  7.809E-25  1.159E-15
5.546E+01  7.824E-25  1.151E-15
5.495E+01  7.839E-25  1.143E-15
5.445E+01  7.854E-25  1.134E-15
5.395E+01  7.869E-25  1.126E-15
5.346E+01  7.884E-25  1.118E-15
5.297E+01  7.899E-25  1.110E-15
5.248E+01  7.914E-25  1.102E-15
5.200E+01  7.930E-25  1.094E-15
5.152E+01  7.944E-25  1.086E-15
5.105E+01  7.959E-25  1.078E-15
5.058E+01  7.974E-25  1.070E-15
5.012E+01  7.988E-25  1.062E-15
4.966E+01  8.002E-25  1.054E-15
