Dust emission from Draine & Li (2007): ApJ 657, 810-837
================================================================
         8 = grain model
 4.000E-08 4.000E-01 0.000E+00 = a_01 (cm) , sigma_1 , b_C1/0.92
 2.500E-07 4.000E-01 0.000E+00 = a_02 (cm) , sigma_2 , b_C2/0.92
 2.000E-01 1.000E+04 2.000E+00 = Umin , Umax, beta (dN/dU propto U^{-beta})
 2.164E+00 = <U> 
     mmp83 = radfield
 1.379E-24 = power/H (erg s-1)
 band   nu*P_nu(band) j_nu(band)
 (um)   (erg s-1 H-1)(Jy cm2 sr-1 H-1)
1.270E+00  2.973E-27  1.001E-19 COBE-DIRBE
2.220E+00  5.165E-27  3.041E-19 COBE-DIRBE
3.530E+00  5.729E-27  5.364E-19 COBE-DIRBE
4.880E+00  5.459E-27  7.066E-19 COBE-DIRBE
1.229E+01  5.455E-26  1.778E-17 COBE-DIRBE
2.079E+01  1.493E-25  8.234E-17 COBE-DIRBE
5.599E+01  6.625E-25  9.840E-16 COBE-DIRBE
9.770E+01  6.502E-25  1.685E-15 COBE-DIRBE
1.479E+02  5.060E-25  1.985E-15 COBE-DIRBE
2.479E+02  2.151E-25  1.414E-15 COBE-DIRBE
1.200E+01  5.395E-26  1.717E-17 IRAS
2.500E+01  1.998E-25  1.325E-16 IRAS
6.000E+01  6.658E-25  1.060E-15 IRAS
1.000E+02  6.448E-25  1.710E-15 IRAS
3.550E+00  5.739E-27  5.404E-19 SST-IRAC
4.493E+00  5.535E-27  6.596E-19 SST-IRAC
5.731E+00  5.641E-27  8.576E-19 SST-IRAC
7.872E+00  3.188E-26  6.657E-18 SST-IRAC
2.368E+01  1.924E-25  1.209E-16 SST-MIPS
7.142E+01  6.331E-25  1.199E-15 SST-MIPS
1.559E+02  4.571E-25  1.890E-15 SST-MIPS
1.600E+01  5.960E-26  2.530E-17 SST-IRSPU
2.200E+01  1.845E-25  1.077E-16 SST-IRSPU











lambda    nu*dP/dnu     j_nu
 (um)   (erg s-1 H-1)(Jy cm2 sr-1 H-1)
1.000E+04  1.514E-31  4.016E-20
9.908E+03  1.569E-31  4.123E-20
9.817E+03  1.625E-31  4.233E-20
9.727E+03  1.684E-31  4.346E-20
9.638E+03  1.745E-31  4.461E-20
9.550E+03  1.808E-31  4.580E-20
9.462E+03  1.873E-31  4.702E-20
9.376E+03  1.941E-31  4.828E-20
9.290E+03  2.011E-31  4.956E-20
9.204E+03  2.084E-31  5.088E-20
9.120E+03  2.159E-31  5.224E-20
9.036E+03  2.237E-31  5.363E-20
8.954E+03  2.318E-31  5.505E-20
8.872E+03  2.401E-31  5.651E-20
8.790E+03  2.487E-31  5.800E-20
8.710E+03  2.577E-31  5.953E-20
8.630E+03  2.670E-31  6.111E-20
8.551E+03  2.766E-31  6.273E-20
8.472E+03  2.865E-31  6.439E-20
8.395E+03  2.968E-31  6.610E-20
8.318E+03  3.076E-31  6.786E-20
8.241E+03  3.186E-31  6.966E-20
8.166E+03  3.301E-31  7.151E-20
8.091E+03  3.421E-31  7.342E-20
8.017E+03  3.544E-31  7.537E-20
7.943E+03  3.672E-31  7.738E-20
7.870E+03  3.805E-31  7.944E-20
7.798E+03  3.943E-31  8.157E-20
7.727E+03  4.086E-31  8.374E-20
7.656E+03  4.234E-31  8.598E-20
7.586E+03  4.387E-31  8.828E-20
7.516E+03  4.547E-31  9.065E-20
7.447E+03  4.712E-31  9.308E-20
7.379E+03  4.883E-31  9.557E-20
7.311E+03  5.060E-31  9.814E-20
7.244E+03  5.244E-31  1.008E-19
7.178E+03  5.435E-31  1.035E-19
7.112E+03  5.633E-31  1.063E-19
7.047E+03  5.838E-31  1.091E-19
6.982E+03  6.050E-31  1.121E-19
6.918E+03  6.270E-31  1.151E-19
6.855E+03  6.499E-31  1.182E-19
6.792E+03  6.735E-31  1.213E-19
6.730E+03  6.981E-31  1.246E-19
6.668E+03  7.235E-31  1.280E-19
6.607E+03  7.499E-31  1.314E-19
6.546E+03  7.773E-31  1.350E-19
6.486E+03  8.057E-31  1.386E-19
6.427E+03  8.351E-31  1.424E-19
6.368E+03  8.657E-31  1.462E-19
6.310E+03  8.973E-31  1.502E-19
6.252E+03  9.302E-31  1.543E-19
6.194E+03  9.643E-31  1.584E-19
6.138E+03  9.996E-31  1.627E-19
6.081E+03  1.036E-30  1.672E-19
6.026E+03  1.074E-30  1.717E-19
5.970E+03  1.114E-30  1.764E-19
5.916E+03  1.155E-30  1.812E-19
5.861E+03  1.197E-30  1.861E-19
5.808E+03  1.241E-30  1.912E-19
5.754E+03  1.287E-30  1.964E-19
5.702E+03  1.334E-30  2.018E-19
5.649E+03  1.383E-30  2.073E-19
5.598E+03  1.434E-30  2.130E-19
5.546E+03  1.487E-30  2.188E-19
5.495E+03  1.542E-30  2.248E-19
5.445E+03  1.599E-30  2.310E-19
5.395E+03  1.658E-30  2.373E-19
5.346E+03  1.719E-30  2.438E-19
5.297E+03  1.783E-30  2.505E-19
5.248E+03  1.849E-30  2.574E-19
5.200E+03  1.917E-30  2.645E-19
5.152E+03  1.988E-30  2.717E-19
5.105E+03  2.062E-30  2.792E-19
5.058E+03  2.138E-30  2.869E-19
5.012E+03  2.218E-30  2.948E-19
4.966E+03  2.300E-30  3.029E-19
4.920E+03  2.385E-30  3.113E-19
4.875E+03  2.474E-30  3.199E-19
4.831E+03  2.565E-30  3.287E-19
4.786E+03  2.661E-30  3.378E-19
4.742E+03  2.759E-30  3.471E-19
4.699E+03  2.862E-30  3.567E-19
4.656E+03  2.969E-30  3.666E-19
4.613E+03  3.079E-30  3.768E-19
4.571E+03  3.194E-30  3.872E-19
4.529E+03  3.313E-30  3.980E-19
4.487E+03  3.436E-30  4.091E-19
4.446E+03  3.565E-30  4.204E-19
4.406E+03  3.698E-30  4.321E-19
4.365E+03  3.836E-30  4.442E-19
4.325E+03  3.979E-30  4.565E-19
4.285E+03  4.128E-30  4.693E-19
4.246E+03  4.283E-30  4.824E-19
4.207E+03  4.443E-30  4.958E-19
4.169E+03  4.609E-30  5.097E-19
4.130E+03  4.782E-30  5.239E-19
4.093E+03  4.961E-30  5.386E-19
4.055E+03  5.148E-30  5.537E-19
4.018E+03  5.341E-30  5.692E-19
3.981E+03  5.541E-30  5.851E-19
3.945E+03  5.749E-30  6.015E-19
3.908E+03  5.964E-30  6.184E-19
3.873E+03  6.188E-30  6.357E-19
3.837E+03  6.421E-30  6.535E-19
3.802E+03  6.662E-30  6.719E-19
3.767E+03  6.913E-30  6.908E-19
3.733E+03  7.173E-30  7.102E-19
3.698E+03  7.443E-30  7.302E-19
3.664E+03  7.724E-30  7.508E-19
3.631E+03  8.015E-30  7.719E-19
3.597E+03  8.318E-30  7.937E-19
3.565E+03  8.632E-30  8.161E-19
3.532E+03  8.958E-30  8.392E-19
3.499E+03  9.297E-30  8.630E-19
3.467E+03  9.648E-30  8.874E-19
3.436E+03  1.001E-29  9.125E-19
3.404E+03  1.039E-29  9.384E-19
3.373E+03  1.079E-29  9.650E-19
3.342E+03  1.120E-29  9.925E-19
3.311E+03  1.162E-29  1.021E-18
3.281E+03  1.206E-29  1.050E-18
3.251E+03  1.252E-29  1.080E-18
3.221E+03  1.300E-29  1.110E-18
3.192E+03  1.349E-29  1.142E-18
3.162E+03  1.400E-29  1.175E-18
3.133E+03  1.454E-29  1.208E-18
3.105E+03  1.509E-29  1.243E-18
3.076E+03  1.566E-29  1.278E-18
3.048E+03  1.626E-29  1.315E-18
3.020E+03  1.688E-29  1.352E-18
2.992E+03  1.752E-29  1.391E-18
2.965E+03  1.819E-29  1.431E-18
2.938E+03  1.888E-29  1.471E-18
2.911E+03  1.960E-29  1.513E-18
2.884E+03  2.035E-29  1.557E-18
2.858E+03  2.112E-29  1.601E-18
2.831E+03  2.193E-29  1.647E-18
2.805E+03  2.276E-29  1.694E-18
2.780E+03  2.363E-29  1.743E-18
2.754E+03  2.454E-29  1.793E-18
2.729E+03  2.547E-29  1.844E-18
2.704E+03  2.645E-29  1.897E-18
2.679E+03  2.746E-29  1.951E-18
2.655E+03  2.851E-29  2.008E-18
2.630E+03  2.960E-29  2.065E-18
2.606E+03  3.073E-29  2.125E-18
2.582E+03  3.191E-29  2.186E-18
2.559E+03  3.314E-29  2.249E-18
2.535E+03  3.441E-29  2.314E-18
2.512E+03  3.573E-29  2.380E-18
2.489E+03  3.710E-29  2.449E-18
2.466E+03  3.852E-29  2.520E-18
2.443E+03  4.000E-29  2.593E-18
2.421E+03  4.154E-29  2.668E-18
2.399E+03  4.314E-29  2.745E-18
2.377E+03  4.480E-29  2.824E-18
2.355E+03  4.652E-29  2.906E-18
2.333E+03  4.831E-29  2.990E-18
2.312E+03  5.017E-29  3.077E-18
2.291E+03  5.210E-29  3.166E-18
2.270E+03  5.411E-29  3.258E-18
2.249E+03  5.619E-29  3.352E-18
2.228E+03  5.836E-29  3.450E-18
2.208E+03  6.061E-29  3.550E-18
2.188E+03  6.294E-29  3.653E-18
2.168E+03  6.537E-29  3.759E-18
2.148E+03  6.789E-29  3.868E-18
2.128E+03  7.051E-29  3.980E-18
2.109E+03  7.323E-29  4.096E-18
2.089E+03  7.606E-29  4.215E-18
2.070E+03  7.899E-29  4.338E-18
2.051E+03  8.204E-29  4.464E-18
2.032E+03  8.521E-29  4.593E-18
2.014E+03  8.850E-29  4.727E-18
1.995E+03  9.191E-29  4.864E-18
1.977E+03  9.546E-29  5.006E-18
1.959E+03  9.914E-29  5.151E-18
1.941E+03  1.030E-28  5.301E-18
1.923E+03  1.069E-28  5.455E-18
1.905E+03  1.111E-28  5.614E-18
1.888E+03  1.154E-28  5.777E-18
1.871E+03  1.198E-28  5.945E-18
1.854E+03  1.244E-28  6.118E-18
1.837E+03  1.292E-28  6.296E-18
1.820E+03  1.342E-28  6.479E-18
1.803E+03  1.394E-28  6.667E-18
1.786E+03  1.448E-28  6.861E-18
1.770E+03  1.504E-28  7.061E-18
1.754E+03  1.562E-28  7.266E-18
1.738E+03  1.622E-28  7.477E-18
1.722E+03  1.685E-28  7.694E-18
1.706E+03  1.750E-28  7.918E-18
1.690E+03  1.817E-28  8.148E-18
1.675E+03  1.887E-28  8.385E-18
1.660E+03  1.960E-28  8.628E-18
1.644E+03  2.036E-28  8.879E-18
1.629E+03  2.114E-28  9.137E-18
1.614E+03  2.196E-28  9.402E-18
1.600E+03  2.280E-28  9.675E-18
1.585E+03  2.368E-28  9.955E-18
1.570E+03  2.459E-28  1.024E-17
1.556E+03  2.554E-28  1.054E-17
1.542E+03  2.652E-28  1.085E-17
1.528E+03  2.754E-28  1.116E-17
1.514E+03  2.860E-28  1.148E-17
1.500E+03  2.970E-28  1.182E-17
1.486E+03  3.084E-28  1.216E-17
1.472E+03  3.203E-28  1.251E-17
1.459E+03  3.326E-28  1.287E-17
1.445E+03  3.454E-28  1.324E-17
1.432E+03  3.587E-28  1.363E-17
1.419E+03  3.724E-28  1.402E-17
1.406E+03  3.867E-28  1.442E-17
1.393E+03  4.016E-28  1.484E-17
1.380E+03  4.170E-28  1.527E-17
1.368E+03  4.330E-28  1.571E-17
1.355E+03  4.496E-28  1.616E-17
1.343E+03  4.668E-28  1.663E-17
1.330E+03  4.847E-28  1.710E-17
1.318E+03  5.032E-28  1.760E-17
1.306E+03  5.224E-28  1.810E-17
1.294E+03  5.424E-28  1.862E-17
1.282E+03  5.631E-28  1.915E-17
1.271E+03  5.846E-28  1.970E-17
1.259E+03  6.069E-28  2.027E-17
1.247E+03  6.300E-28  2.085E-17
1.236E+03  6.540E-28  2.144E-17
1.225E+03  6.789E-28  2.205E-17
1.213E+03  7.048E-28  2.268E-17
1.202E+03  7.315E-28  2.333E-17
1.191E+03  7.593E-28  2.399E-17
1.180E+03  7.881E-28  2.468E-17
1.169E+03  8.180E-28  2.538E-17
1.159E+03  8.490E-28  2.610E-17
1.148E+03  8.811E-28  2.684E-17
1.138E+03  9.144E-28  2.759E-17
1.127E+03  9.490E-28  2.837E-17
1.117E+03  9.848E-28  2.918E-17
1.107E+03  1.022E-27  3.000E-17
1.096E+03  1.060E-27  3.084E-17
1.086E+03  1.100E-27  3.171E-17
1.076E+03  1.142E-27  3.260E-17
1.067E+03  1.185E-27  3.352E-17
1.057E+03  1.229E-27  3.445E-17
1.047E+03  1.275E-27  3.542E-17
1.038E+03  1.323E-27  3.641E-17
1.028E+03  1.372E-27  3.742E-17
1.019E+03  1.424E-27  3.846E-17
1.009E+03  1.477E-27  3.953E-17
1.000E+03  1.532E-27  4.063E-17
9.908E+02  1.589E-27  4.176E-17
9.817E+02  1.648E-27  4.291E-17
9.727E+02  1.709E-27  4.410E-17
9.638E+02  1.773E-27  4.532E-17
9.550E+02  1.839E-27  4.657E-17
9.462E+02  1.907E-27  4.786E-17
9.376E+02  1.977E-27  4.917E-17
9.290E+02  2.050E-27  5.052E-17
9.204E+02  2.126E-27  5.191E-17
9.120E+02  2.204E-27  5.333E-17
9.036E+02  2.286E-27  5.478E-17
8.954E+02  2.369E-27  5.628E-17
8.872E+02  2.456E-27  5.780E-17
8.790E+02  2.546E-27  5.937E-17
8.710E+02  2.639E-27  6.098E-17
8.630E+02  2.736E-27  6.262E-17
8.551E+02  2.835E-27  6.431E-17
8.472E+02  2.938E-27  6.603E-17
8.395E+02  3.045E-27  6.780E-17
8.318E+02  3.155E-27  6.961E-17
8.241E+02  3.269E-27  7.147E-17
8.166E+02  3.387E-27  7.337E-17
8.091E+02  3.509E-27  7.531E-17
8.017E+02  3.635E-27  7.730E-17
7.943E+02  3.766E-27  7.934E-17
7.870E+02  3.900E-27  8.143E-17
7.798E+02  4.040E-27  8.357E-17
7.727E+02  4.184E-27  8.575E-17
7.656E+02  4.333E-27  8.800E-17
7.586E+02  4.487E-27  9.029E-17
7.516E+02  4.646E-27  9.264E-17
7.447E+02  4.811E-27  9.505E-17
7.379E+02  4.982E-27  9.752E-17
7.311E+02  5.159E-27  1.001E-16
7.244E+02  5.342E-27  1.026E-16
7.178E+02  5.531E-27  1.053E-16
7.112E+02  5.726E-27  1.080E-16
7.047E+02  5.928E-27  1.108E-16
6.982E+02  6.137E-27  1.137E-16
6.918E+02  6.353E-27  1.166E-16
6.855E+02  6.576E-27  1.196E-16
6.792E+02  6.807E-27  1.226E-16
6.730E+02  7.044E-27  1.257E-16
6.668E+02  7.290E-27  1.289E-16
6.607E+02  7.544E-27  1.322E-16
6.546E+02  7.807E-27  1.356E-16
6.486E+02  8.080E-27  1.390E-16
6.427E+02  8.362E-27  1.426E-16
6.368E+02  8.654E-27  1.462E-16
6.310E+02  8.955E-27  1.499E-16
6.252E+02  9.267E-27  1.537E-16
6.194E+02  9.589E-27  1.576E-16
6.138E+02  9.922E-27  1.615E-16
6.081E+02  1.027E-26  1.656E-16
6.026E+02  1.062E-26  1.698E-16
5.970E+02  1.099E-26  1.740E-16
5.916E+02  1.137E-26  1.784E-16
5.861E+02  1.176E-26  1.828E-16
5.808E+02  1.217E-26  1.874E-16
5.754E+02  1.258E-26  1.921E-16
5.702E+02  1.302E-26  1.969E-16
5.649E+02  1.346E-26  2.018E-16
5.598E+02  1.392E-26  2.068E-16
5.546E+02  1.440E-26  2.119E-16
5.495E+02  1.489E-26  2.171E-16
5.445E+02  1.540E-26  2.225E-16
5.395E+02  1.593E-26  2.279E-16
5.346E+02  1.647E-26  2.335E-16
5.297E+02  1.703E-26  2.392E-16
5.248E+02  1.761E-26  2.451E-16
5.200E+02  1.820E-26  2.511E-16
5.152E+02  1.882E-26  2.572E-16
5.105E+02  1.946E-26  2.635E-16
5.058E+02  2.011E-26  2.699E-16
5.012E+02  2.079E-26  2.764E-16
4.966E+02  2.149E-26  2.830E-16
4.920E+02  2.221E-26  2.899E-16
4.875E+02  2.295E-26  2.968E-16
4.831E+02  2.372E-26  3.039E-16
4.786E+02  2.451E-26  3.112E-16
4.742E+02  2.533E-26  3.186E-16
4.699E+02  2.616E-26  3.261E-16
4.656E+02  2.703E-26  3.338E-16
4.613E+02  2.793E-26  3.417E-16
4.571E+02  2.885E-26  3.498E-16
4.529E+02  2.980E-26  3.580E-16
4.487E+02  3.078E-26  3.664E-16
4.446E+02  3.179E-26  3.749E-16
4.406E+02  3.283E-26  3.836E-16
4.365E+02  3.390E-26  3.925E-16
4.325E+02  3.500E-26  4.016E-16
4.285E+02  3.614E-26  4.108E-16
4.246E+02  3.731E-26  4.202E-16
4.207E+02  3.852E-26  4.298E-16
4.169E+02  3.976E-26  4.396E-16
4.130E+02  4.103E-26  4.496E-16
4.093E+02  4.235E-26  4.598E-16
4.055E+02  4.371E-26  4.701E-16
4.018E+02  4.510E-26  4.807E-16
3.981E+02  4.654E-26  4.915E-16
3.945E+02  4.802E-26  5.025E-16
3.908E+02  4.955E-26  5.137E-16
3.873E+02  5.111E-26  5.251E-16
3.837E+02  5.273E-26  5.367E-16
3.802E+02  5.439E-26  5.485E-16
3.767E+02  5.609E-26  5.605E-16
3.733E+02  5.784E-26  5.727E-16
3.698E+02  5.964E-26  5.851E-16
3.664E+02  6.150E-26  5.978E-16
3.631E+02  6.341E-26  6.107E-16
3.597E+02  6.536E-26  6.237E-16
3.565E+02  6.737E-26  6.370E-16
3.532E+02  6.943E-26  6.505E-16
3.499E+02  7.156E-26  6.642E-16
3.467E+02  7.373E-26  6.782E-16
3.436E+02  7.597E-26  6.924E-16
3.404E+02  7.827E-26  7.068E-16
3.373E+02  8.063E-26  7.214E-16
3.342E+02  8.305E-26  7.362E-16
3.311E+02  8.554E-26  7.513E-16
3.281E+02  8.808E-26  7.666E-16
3.251E+02  9.069E-26  7.820E-16
3.221E+02  9.337E-26  7.978E-16
3.192E+02  9.612E-26  8.137E-16
3.162E+02  9.894E-26  8.299E-16
3.133E+02  1.018E-25  8.461E-16
3.105E+02  1.048E-25  8.627E-16
3.076E+02  1.078E-25  8.796E-16
3.048E+02  1.109E-25  8.966E-16
3.020E+02  1.141E-25  9.138E-16
2.992E+02  1.173E-25  9.313E-16
2.965E+02  1.207E-25  9.489E-16
2.938E+02  1.241E-25  9.668E-16
2.911E+02  1.276E-25  9.849E-16
2.884E+02  1.311E-25  1.003E-15
2.858E+02  1.348E-25  1.022E-15
2.831E+02  1.385E-25  1.040E-15
2.805E+02  1.423E-25  1.059E-15
2.780E+02  1.462E-25  1.078E-15
2.754E+02  1.502E-25  1.097E-15
2.729E+02  1.543E-25  1.117E-15
2.704E+02  1.585E-25  1.137E-15
2.679E+02  1.627E-25  1.157E-15
2.655E+02  1.671E-25  1.177E-15
2.630E+02  1.716E-25  1.197E-15
2.606E+02  1.762E-25  1.218E-15
2.582E+02  1.808E-25  1.238E-15
2.559E+02  1.855E-25  1.259E-15
2.535E+02  1.903E-25  1.280E-15
2.512E+02  1.951E-25  1.300E-15
2.489E+02  1.999E-25  1.320E-15
2.466E+02  2.046E-25  1.338E-15
2.443E+02  2.094E-25  1.357E-15
2.421E+02  2.141E-25  1.375E-15
2.399E+02  2.189E-25  1.393E-15
2.377E+02  2.236E-25  1.410E-15
2.355E+02  2.283E-25  1.426E-15
2.333E+02  2.331E-25  1.443E-15
2.312E+02  2.379E-25  1.459E-15
2.291E+02  2.428E-25  1.476E-15
2.270E+02  2.478E-25  1.492E-15
2.249E+02  2.528E-25  1.508E-15
2.228E+02  2.578E-25  1.524E-15
2.208E+02  2.629E-25  1.540E-15
2.188E+02  2.680E-25  1.555E-15
2.168E+02  2.732E-25  1.571E-15
2.148E+02  2.784E-25  1.586E-15
2.128E+02  2.837E-25  1.601E-15
2.109E+02  2.889E-25  1.616E-15
2.089E+02  2.943E-25  1.631E-15
2.070E+02  2.996E-25  1.645E-15
2.051E+02  3.050E-25  1.659E-15
2.032E+02  3.104E-25  1.673E-15
2.014E+02  3.158E-25  1.687E-15
1.995E+02  3.213E-25  1.700E-15
1.977E+02  3.268E-25  1.714E-15
1.959E+02  3.323E-25  1.726E-15
1.941E+02  3.378E-25  1.739E-15
1.923E+02  3.433E-25  1.751E-15
1.905E+02  3.489E-25  1.763E-15
1.888E+02  3.544E-25  1.775E-15
1.871E+02  3.600E-25  1.786E-15
1.854E+02  3.656E-25  1.798E-15
1.837E+02  3.712E-25  1.808E-15
1.820E+02  3.768E-25  1.819E-15
1.803E+02  3.825E-25  1.829E-15
1.786E+02  3.881E-25  1.839E-15
1.770E+02  3.937E-25  1.849E-15
1.754E+02  3.994E-25  1.858E-15
1.738E+02  4.050E-25  1.867E-15
1.722E+02  4.107E-25  1.876E-15
1.706E+02  4.163E-25  1.884E-15
1.690E+02  4.220E-25  1.892E-15
1.675E+02  4.277E-25  1.900E-15
1.660E+02  4.334E-25  1.908E-15
1.644E+02  4.392E-25  1.916E-15
1.629E+02  4.450E-25  1.923E-15
1.614E+02  4.508E-25  1.930E-15
1.600E+02  4.566E-25  1.938E-15
1.585E+02  4.626E-25  1.945E-15
1.570E+02  4.686E-25  1.952E-15
1.556E+02  4.747E-25  1.959E-15
1.542E+02  4.809E-25  1.967E-15
1.528E+02  4.872E-25  1.974E-15
1.514E+02  4.937E-25  1.982E-15
1.500E+02  5.003E-25  1.990E-15
1.486E+02  5.071E-25  1.999E-15
1.472E+02  5.141E-25  2.008E-15
1.459E+02  5.212E-25  2.017E-15
1.445E+02  5.283E-25  2.026E-15
1.432E+02  5.353E-25  2.034E-15
1.419E+02  5.419E-25  2.040E-15
1.406E+02  5.479E-25  2.044E-15
1.393E+02  5.532E-25  2.044E-15
1.380E+02  5.575E-25  2.041E-15
1.368E+02  5.610E-25  2.035E-15
1.355E+02  5.638E-25  2.027E-15
1.343E+02  5.661E-25  2.016E-15
1.330E+02  5.682E-25  2.005E-15
1.318E+02  5.701E-25  1.994E-15
1.306E+02  5.721E-25  1.982E-15
1.294E+02  5.742E-25  1.971E-15
1.282E+02  5.764E-25  1.961E-15
1.271E+02  5.788E-25  1.951E-15
1.259E+02  5.813E-25  1.941E-15
1.247E+02  5.838E-25  1.932E-15
1.236E+02  5.865E-25  1.923E-15
1.225E+02  5.892E-25  1.914E-15
1.213E+02  5.920E-25  1.906E-15
1.202E+02  5.949E-25  1.897E-15
1.191E+02  5.977E-25  1.889E-15
1.180E+02  6.006E-25  1.880E-15
1.169E+02  6.034E-25  1.872E-15
1.159E+02  6.062E-25  1.863E-15
1.148E+02  6.090E-25  1.855E-15
1.138E+02  6.117E-25  1.846E-15
1.127E+02  6.144E-25  1.837E-15
1.117E+02  6.172E-25  1.829E-15
1.107E+02  6.200E-25  1.820E-15
1.096E+02  6.228E-25  1.811E-15
1.086E+02  6.255E-25  1.803E-15
1.076E+02  6.282E-25  1.794E-15
1.067E+02  6.309E-25  1.785E-15
1.057E+02  6.335E-25  1.776E-15
1.047E+02  6.361E-25  1.767E-15
1.038E+02  6.387E-25  1.758E-15
1.028E+02  6.412E-25  1.748E-15
1.019E+02  6.435E-25  1.739E-15
1.009E+02  6.459E-25  1.729E-15
1.000E+02  6.482E-25  1.719E-15
9.908E+01  6.504E-25  1.709E-15
9.817E+01  6.526E-25  1.699E-15
9.727E+01  6.546E-25  1.689E-15
9.638E+01  6.567E-25  1.679E-15
9.550E+01  6.587E-25  1.669E-15
9.462E+01  6.606E-25  1.658E-15
9.376E+01  6.625E-25  1.648E-15
9.290E+01  6.644E-25  1.637E-15
9.204E+01  6.662E-25  1.626E-15
9.120E+01  6.679E-25  1.616E-15
9.036E+01  6.695E-25  1.605E-15
8.954E+01  6.712E-25  1.594E-15
8.872E+01  6.727E-25  1.583E-15
8.790E+01  6.743E-25  1.572E-15
8.710E+01  6.758E-25  1.561E-15
8.630E+01  6.773E-25  1.551E-15
8.551E+01  6.788E-25  1.540E-15
8.472E+01  6.801E-25  1.529E-15
8.395E+01  6.814E-25  1.517E-15
8.318E+01  6.827E-25  1.506E-15
8.241E+01  6.838E-25  1.495E-15
8.166E+01  6.850E-25  1.484E-15
8.091E+01  6.862E-25  1.473E-15
8.017E+01  6.872E-25  1.461E-15
7.943E+01  6.882E-25  1.450E-15
7.870E+01  6.891E-25  1.439E-15
7.798E+01  6.900E-25  1.427E-15
7.727E+01  6.908E-25  1.416E-15
7.656E+01  6.916E-25  1.404E-15
7.586E+01  6.923E-25  1.393E-15
7.516E+01  6.930E-25  1.382E-15
7.447E+01  6.936E-25  1.370E-15
7.379E+01  6.940E-25  1.358E-15
7.311E+01  6.945E-25  1.347E-15
7.244E+01  6.948E-25  1.335E-15
7.178E+01  6.950E-25  1.323E-15
7.112E+01  6.952E-25  1.312E-15
7.047E+01  6.954E-25  1.300E-15
6.982E+01  6.957E-25  1.288E-15
6.918E+01  6.958E-25  1.277E-15
6.855E+01  6.958E-25  1.265E-15
6.792E+01  6.957E-25  1.253E-15
6.730E+01  6.955E-25  1.241E-15
6.668E+01  6.952E-25  1.230E-15
6.607E+01  6.950E-25  1.218E-15
6.546E+01  6.947E-25  1.206E-15
6.486E+01  6.943E-25  1.195E-15
6.427E+01  6.938E-25  1.183E-15
6.368E+01  6.932E-25  1.171E-15
6.310E+01  6.926E-25  1.159E-15
6.252E+01  6.919E-25  1.147E-15
6.194E+01  6.912E-25  1.136E-15
6.138E+01  6.904E-25  1.124E-15
6.081E+01  6.896E-25  1.112E-15
6.026E+01  6.886E-25  1.101E-15
5.970E+01  6.876E-25  1.089E-15
5.916E+01  6.864E-25  1.077E-15
5.861E+01  6.852E-25  1.065E-15
5.808E+01  6.838E-25  1.053E-15
5.754E+01  6.824E-25  1.042E-15
5.702E+01  6.808E-25  1.030E-15
5.649E+01  6.792E-25  1.018E-15
5.598E+01  6.776E-25  1.006E-15
5.546E+01  6.759E-25  9.944E-16
5.495E+01  6.741E-25  9.827E-16
5.445E+01  6.723E-25  9.711E-16
5.395E+01  6.704E-25  9.594E-16
5.346E+01  6.685E-25  9.479E-16
5.297E+01  6.664E-25  9.362E-16
5.248E+01  6.642E-25  9.247E-16
5.200E+01  6.620E-25  9.131E-16
5.152E+01  6.597E-25  9.016E-16
5.105E+01  6.572E-25  8.900E-16
5.058E+01  6.547E-25  8.784E-16
5.012E+01  6.521E-25  8.669E-16
4.966E+01  6.493E-25  8.553E-16
