Dust emission from Draine & Li (2007): ApJ 657, 810-837
================================================================
         3 = grain model
 4.000E-08 4.000E-01 1.500E-05 = a_01 (cm) , sigma_1 , b_C1/0.92
 2.500E-07 4.000E-01 5.000E-06 = a_02 (cm) , sigma_2 , b_C2/0.92
 2.000E-01 1.000E+03 2.000E+00 = Umin , Umax, beta (dN/dU propto U^{-beta})
 1.704E+00 = <U> 
     mmp83 = radfield
 7.583E-24 = power/H (erg s-1)
 band   nu*P_nu(band) j_nu(band)
 (um)   (erg s-1 H-1)(Jy cm2 sr-1 H-1)
1.270E+00  1.117E-26  3.763E-19 COBE-DIRBE
2.220E+00  1.407E-26  8.285E-19 COBE-DIRBE
3.530E+00  9.362E-26  8.766E-18 COBE-DIRBE
4.880E+00  4.331E-26  5.606E-18 COBE-DIRBE
1.229E+01  4.469E-25  1.457E-16 COBE-DIRBE
2.079E+01  5.126E-25  2.827E-16 COBE-DIRBE
5.599E+01  3.734E-24  5.546E-15 COBE-DIRBE
9.770E+01  3.688E-24  9.558E-15 COBE-DIRBE
1.479E+02  2.727E-24  1.070E-14 COBE-DIRBE
2.479E+02  1.007E-24  6.618E-15 COBE-DIRBE
1.200E+01  4.537E-25  1.444E-16 IRAS
2.500E+01  6.377E-25  4.229E-16 IRAS
6.000E+01  3.761E-24  5.985E-15 IRAS
1.000E+02  3.653E-24  9.689E-15 IRAS
3.550E+00  1.089E-25  1.026E-17 SST-IRAC
4.493E+00  3.017E-26  3.596E-18 SST-IRAC
5.731E+00  2.608E-25  3.965E-17 SST-IRAC
7.872E+00  6.243E-25  1.304E-16 SST-IRAC
2.368E+01  5.391E-25  3.386E-16 SST-MIPS
7.142E+01  3.600E-24  6.820E-15 SST-MIPS
1.559E+02  2.429E-24  1.004E-14 SST-MIPS
1.600E+01  4.244E-25  1.801E-16 SST-IRSPU
2.200E+01  5.341E-25  3.117E-16 SST-IRSPU











lambda    nu*dP/dnu     j_nu
 (um)   (erg s-1 H-1)(Jy cm2 sr-1 H-1)
1.000E+04  4.935E-31  1.309E-19
9.908E+03  5.116E-31  1.345E-19
9.817E+03  5.303E-31  1.381E-19
9.727E+03  5.496E-31  1.418E-19
9.638E+03  5.697E-31  1.457E-19
9.550E+03  5.905E-31  1.496E-19
9.462E+03  6.121E-31  1.536E-19
9.376E+03  6.344E-31  1.578E-19
9.290E+03  6.576E-31  1.620E-19
9.204E+03  6.816E-31  1.664E-19
9.120E+03  7.065E-31  1.709E-19
9.036E+03  7.323E-31  1.755E-19
8.954E+03  7.590E-31  1.803E-19
8.872E+03  7.866E-31  1.851E-19
8.790E+03  8.152E-31  1.901E-19
8.710E+03  8.448E-31  1.952E-19
8.630E+03  8.756E-31  2.004E-19
8.551E+03  9.075E-31  2.058E-19
8.472E+03  9.405E-31  2.114E-19
8.395E+03  9.748E-31  2.171E-19
8.318E+03  1.010E-30  2.229E-19
8.241E+03  1.047E-30  2.289E-19
8.166E+03  1.086E-30  2.351E-19
8.091E+03  1.125E-30  2.415E-19
8.017E+03  1.166E-30  2.480E-19
7.943E+03  1.209E-30  2.547E-19
7.870E+03  1.253E-30  2.616E-19
7.798E+03  1.299E-30  2.687E-19
7.727E+03  1.347E-30  2.760E-19
7.656E+03  1.396E-30  2.835E-19
7.586E+03  1.447E-30  2.912E-19
7.516E+03  1.501E-30  2.992E-19
7.447E+03  1.556E-30  3.073E-19
7.379E+03  1.613E-30  3.157E-19
7.311E+03  1.672E-30  3.243E-19
7.244E+03  1.734E-30  3.331E-19
7.178E+03  1.797E-30  3.422E-19
7.112E+03  1.864E-30  3.516E-19
7.047E+03  1.932E-30  3.612E-19
6.982E+03  2.003E-30  3.711E-19
6.918E+03  2.077E-30  3.812E-19
6.855E+03  2.154E-30  3.916E-19
6.792E+03  2.233E-30  4.023E-19
6.730E+03  2.315E-30  4.133E-19
6.668E+03  2.401E-30  4.247E-19
6.607E+03  2.490E-30  4.363E-19
6.546E+03  2.582E-30  4.483E-19
6.486E+03  2.677E-30  4.606E-19
6.427E+03  2.776E-30  4.733E-19
6.368E+03  2.879E-30  4.863E-19
6.310E+03  2.985E-30  4.997E-19
6.252E+03  3.096E-30  5.134E-19
6.194E+03  3.211E-30  5.276E-19
6.138E+03  3.330E-30  5.421E-19
6.081E+03  3.454E-30  5.571E-19
6.026E+03  3.582E-30  5.725E-19
5.970E+03  3.715E-30  5.883E-19
5.916E+03  3.853E-30  6.046E-19
5.861E+03  3.997E-30  6.214E-19
5.808E+03  4.145E-30  6.386E-19
5.754E+03  4.300E-30  6.563E-19
5.702E+03  4.460E-30  6.745E-19
5.649E+03  4.626E-30  6.933E-19
5.598E+03  4.799E-30  7.125E-19
5.546E+03  4.978E-30  7.324E-19
5.495E+03  5.164E-30  7.527E-19
5.445E+03  5.357E-30  7.737E-19
5.395E+03  5.557E-30  7.953E-19
5.346E+03  5.765E-30  8.175E-19
5.297E+03  5.981E-30  8.403E-19
5.248E+03  6.205E-30  8.638E-19
5.200E+03  6.437E-30  8.879E-19
5.152E+03  6.678E-30  9.127E-19
5.105E+03  6.929E-30  9.383E-19
5.058E+03  7.189E-30  9.646E-19
5.012E+03  7.459E-30  9.916E-19
4.966E+03  7.739E-30  1.019E-18
4.920E+03  8.029E-30  1.048E-18
4.875E+03  8.331E-30  1.077E-18
4.831E+03  8.644E-30  1.108E-18
4.786E+03  8.969E-30  1.139E-18
4.742E+03  9.307E-30  1.171E-18
4.699E+03  9.657E-30  1.204E-18
4.656E+03  1.002E-29  1.238E-18
4.613E+03  1.040E-29  1.272E-18
4.571E+03  1.079E-29  1.308E-18
4.529E+03  1.120E-29  1.345E-18
4.487E+03  1.162E-29  1.383E-18
4.446E+03  1.206E-29  1.422E-18
4.406E+03  1.252E-29  1.463E-18
4.365E+03  1.299E-29  1.504E-18
4.325E+03  1.348E-29  1.547E-18
4.285E+03  1.399E-29  1.591E-18
4.246E+03  1.452E-29  1.636E-18
4.207E+03  1.507E-29  1.682E-18
4.169E+03  1.564E-29  1.730E-18
4.130E+03  1.624E-29  1.779E-18
4.093E+03  1.686E-29  1.830E-18
4.055E+03  1.750E-29  1.882E-18
4.018E+03  1.816E-29  1.936E-18
3.981E+03  1.885E-29  1.991E-18
3.945E+03  1.957E-29  2.047E-18
3.908E+03  2.031E-29  2.106E-18
3.873E+03  2.108E-29  2.166E-18
3.837E+03  2.189E-29  2.228E-18
3.802E+03  2.272E-29  2.291E-18
3.767E+03  2.358E-29  2.357E-18
3.733E+03  2.448E-29  2.424E-18
3.698E+03  2.542E-29  2.494E-18
3.664E+03  2.639E-29  2.565E-18
3.631E+03  2.740E-29  2.639E-18
3.597E+03  2.844E-29  2.714E-18
3.565E+03  2.953E-29  2.792E-18
3.532E+03  3.066E-29  2.873E-18
3.499E+03  3.184E-29  2.955E-18
3.467E+03  3.306E-29  3.041E-18
3.436E+03  3.433E-29  3.128E-18
3.404E+03  3.564E-29  3.218E-18
3.373E+03  3.701E-29  3.311E-18
3.342E+03  3.843E-29  3.407E-18
3.311E+03  3.991E-29  3.506E-18
3.281E+03  4.145E-29  3.607E-18
3.251E+03  4.304E-29  3.711E-18
3.221E+03  4.470E-29  3.819E-18
3.192E+03  4.642E-29  3.930E-18
3.162E+03  4.821E-29  4.044E-18
3.133E+03  5.007E-29  4.161E-18
3.105E+03  5.200E-29  4.282E-18
3.076E+03  5.401E-29  4.407E-18
3.048E+03  5.609E-29  4.535E-18
3.020E+03  5.826E-29  4.667E-18
2.992E+03  6.051E-29  4.803E-18
2.965E+03  6.284E-29  4.942E-18
2.938E+03  6.527E-29  5.086E-18
2.911E+03  6.779E-29  5.234E-18
2.884E+03  7.041E-29  5.386E-18
2.858E+03  7.313E-29  5.543E-18
2.831E+03  7.595E-29  5.705E-18
2.805E+03  7.889E-29  5.871E-18
2.780E+03  8.195E-29  6.042E-18
2.754E+03  8.512E-29  6.219E-18
2.729E+03  8.842E-29  6.401E-18
2.704E+03  9.185E-29  6.588E-18
2.679E+03  9.541E-29  6.781E-18
2.655E+03  9.912E-29  6.979E-18
2.630E+03  1.030E-28  7.184E-18
2.606E+03  1.070E-28  7.395E-18
2.582E+03  1.111E-28  7.612E-18
2.559E+03  1.154E-28  7.835E-18
2.535E+03  1.199E-28  8.066E-18
2.512E+03  1.246E-28  8.303E-18
2.489E+03  1.295E-28  8.547E-18
2.466E+03  1.345E-28  8.799E-18
2.443E+03  1.398E-28  9.058E-18
2.421E+03  1.452E-28  9.325E-18
2.399E+03  1.509E-28  9.600E-18
2.377E+03  1.568E-28  9.883E-18
2.355E+03  1.629E-28  1.017E-17
2.333E+03  1.692E-28  1.048E-17
2.312E+03  1.759E-28  1.078E-17
2.291E+03  1.827E-28  1.110E-17
2.270E+03  1.899E-28  1.143E-17
2.249E+03  1.973E-28  1.177E-17
2.228E+03  2.050E-28  1.212E-17
2.208E+03  2.130E-28  1.248E-17
2.188E+03  2.214E-28  1.285E-17
2.168E+03  2.301E-28  1.323E-17
2.148E+03  2.391E-28  1.362E-17
2.128E+03  2.484E-28  1.402E-17
2.109E+03  2.582E-28  1.444E-17
2.089E+03  2.683E-28  1.487E-17
2.070E+03  2.788E-28  1.531E-17
2.051E+03  2.897E-28  1.576E-17
2.032E+03  3.011E-28  1.623E-17
2.014E+03  3.129E-28  1.672E-17
1.995E+03  3.252E-28  1.721E-17
1.977E+03  3.380E-28  1.772E-17
1.959E+03  3.512E-28  1.825E-17
1.941E+03  3.650E-28  1.879E-17
1.923E+03  3.793E-28  1.935E-17
1.905E+03  3.942E-28  1.993E-17
1.888E+03  4.097E-28  2.052E-17
1.871E+03  4.258E-28  2.113E-17
1.854E+03  4.425E-28  2.176E-17
1.837E+03  4.599E-28  2.240E-17
1.820E+03  4.780E-28  2.307E-17
1.803E+03  4.968E-28  2.376E-17
1.786E+03  5.163E-28  2.447E-17
1.770E+03  5.366E-28  2.519E-17
1.754E+03  5.577E-28  2.594E-17
1.738E+03  5.796E-28  2.672E-17
1.722E+03  6.024E-28  2.751E-17
1.706E+03  6.260E-28  2.833E-17
1.690E+03  6.506E-28  2.918E-17
1.675E+03  6.762E-28  3.004E-17
1.660E+03  7.028E-28  3.094E-17
1.644E+03  7.304E-28  3.186E-17
1.629E+03  7.591E-28  3.281E-17
1.614E+03  7.890E-28  3.379E-17
1.600E+03  8.200E-28  3.479E-17
1.585E+03  8.522E-28  3.583E-17
1.570E+03  8.857E-28  3.689E-17
1.556E+03  9.205E-28  3.799E-17
1.542E+03  9.566E-28  3.912E-17
1.528E+03  9.942E-28  4.028E-17
1.514E+03  1.033E-27  4.148E-17
1.500E+03  1.074E-27  4.271E-17
1.486E+03  1.116E-27  4.398E-17
1.472E+03  1.160E-27  4.529E-17
1.459E+03  1.205E-27  4.664E-17
1.445E+03  1.253E-27  4.803E-17
1.432E+03  1.302E-27  4.945E-17
1.419E+03  1.353E-27  5.092E-17
1.406E+03  1.406E-27  5.244E-17
1.393E+03  1.461E-27  5.399E-17
1.380E+03  1.518E-27  5.560E-17
1.368E+03  1.578E-27  5.724E-17
1.355E+03  1.640E-27  5.894E-17
1.343E+03  1.704E-27  6.069E-17
1.330E+03  1.771E-27  6.249E-17
1.318E+03  1.840E-27  6.434E-17
1.306E+03  1.912E-27  6.625E-17
1.294E+03  1.987E-27  6.821E-17
1.282E+03  2.064E-27  7.022E-17
1.271E+03  2.145E-27  7.230E-17
1.259E+03  2.229E-27  7.443E-17
1.247E+03  2.316E-27  7.663E-17
1.236E+03  2.406E-27  7.889E-17
1.225E+03  2.500E-27  8.122E-17
1.213E+03  2.598E-27  8.361E-17
1.202E+03  2.699E-27  8.607E-17
1.191E+03  2.804E-27  8.860E-17
1.180E+03  2.913E-27  9.121E-17
1.169E+03  3.026E-27  9.389E-17
1.159E+03  3.144E-27  9.664E-17
1.148E+03  3.266E-27  9.948E-17
1.138E+03  3.393E-27  1.024E-16
1.127E+03  3.525E-27  1.054E-16
1.117E+03  3.661E-27  1.085E-16
1.107E+03  3.803E-27  1.116E-16
1.096E+03  3.950E-27  1.149E-16
1.086E+03  4.103E-27  1.182E-16
1.076E+03  4.262E-27  1.217E-16
1.067E+03  4.427E-27  1.252E-16
1.057E+03  4.597E-27  1.289E-16
1.047E+03  4.775E-27  1.326E-16
1.038E+03  4.959E-27  1.365E-16
1.028E+03  5.149E-27  1.404E-16
1.019E+03  5.347E-27  1.445E-16
1.009E+03  5.553E-27  1.487E-16
1.000E+03  5.766E-27  1.529E-16
9.908E+02  5.987E-27  1.574E-16
9.817E+02  6.217E-27  1.619E-16
9.727E+02  6.455E-27  1.666E-16
9.638E+02  6.703E-27  1.714E-16
9.550E+02  6.959E-27  1.763E-16
9.462E+02  7.225E-27  1.814E-16
9.376E+02  7.501E-27  1.866E-16
9.290E+02  7.787E-27  1.919E-16
9.204E+02  8.084E-27  1.974E-16
9.120E+02  8.392E-27  2.030E-16
9.036E+02  8.711E-27  2.088E-16
8.954E+02  9.041E-27  2.147E-16
8.872E+02  9.384E-27  2.208E-16
8.790E+02  9.739E-27  2.271E-16
8.710E+02  1.011E-26  2.335E-16
8.630E+02  1.049E-26  2.401E-16
8.551E+02  1.088E-26  2.469E-16
8.472E+02  1.129E-26  2.538E-16
8.395E+02  1.172E-26  2.609E-16
8.318E+02  1.216E-26  2.682E-16
8.241E+02  1.261E-26  2.758E-16
8.166E+02  1.309E-26  2.834E-16
8.091E+02  1.357E-26  2.913E-16
8.017E+02  1.408E-26  2.994E-16
7.943E+02  1.461E-26  3.077E-16
7.870E+02  1.515E-26  3.163E-16
7.798E+02  1.571E-26  3.250E-16
7.727E+02  1.629E-26  3.340E-16
7.656E+02  1.690E-26  3.432E-16
7.586E+02  1.752E-26  3.526E-16
7.516E+02  1.817E-26  3.623E-16
7.447E+02  1.884E-26  3.722E-16
7.379E+02  1.954E-26  3.824E-16
7.311E+02  2.026E-26  3.929E-16
7.244E+02  2.100E-26  4.036E-16
7.178E+02  2.178E-26  4.146E-16
7.112E+02  2.258E-26  4.259E-16
7.047E+02  2.341E-26  4.375E-16
6.982E+02  2.427E-26  4.494E-16
6.918E+02  2.515E-26  4.616E-16
6.855E+02  2.608E-26  4.741E-16
6.792E+02  2.703E-26  4.869E-16
6.730E+02  2.801E-26  5.001E-16
6.668E+02  2.903E-26  5.135E-16
6.607E+02  3.009E-26  5.273E-16
6.546E+02  3.118E-26  5.414E-16
6.486E+02  3.231E-26  5.560E-16
6.427E+02  3.349E-26  5.709E-16
6.368E+02  3.471E-26  5.862E-16
6.310E+02  3.597E-26  6.019E-16
6.252E+02  3.727E-26  6.180E-16
6.194E+02  3.862E-26  6.345E-16
6.138E+02  4.001E-26  6.515E-16
6.081E+02  4.146E-26  6.688E-16
6.026E+02  4.295E-26  6.866E-16
5.970E+02  4.450E-26  7.048E-16
5.916E+02  4.610E-26  7.234E-16
5.861E+02  4.776E-26  7.426E-16
5.808E+02  4.947E-26  7.622E-16
5.754E+02  5.125E-26  7.822E-16
5.702E+02  5.308E-26  8.028E-16
5.649E+02  5.498E-26  8.239E-16
5.598E+02  5.694E-26  8.455E-16
5.546E+02  5.897E-26  8.676E-16
5.495E+02  6.107E-26  8.902E-16
5.445E+02  6.324E-26  9.134E-16
5.395E+02  6.549E-26  9.372E-16
5.346E+02  6.781E-26  9.615E-16
5.297E+02  7.021E-26  9.864E-16
5.248E+02  7.269E-26  1.012E-15
5.200E+02  7.526E-26  1.038E-15
5.152E+02  7.791E-26  1.065E-15
5.105E+02  8.065E-26  1.092E-15
5.058E+02  8.348E-26  1.120E-15
5.012E+02  8.640E-26  1.149E-15
4.966E+02  8.943E-26  1.178E-15
4.920E+02  9.255E-26  1.208E-15
4.875E+02  9.578E-26  1.239E-15
4.831E+02  9.911E-26  1.270E-15
4.786E+02  1.025E-25  1.302E-15
4.742E+02  1.061E-25  1.335E-15
4.699E+02  1.098E-25  1.368E-15
4.656E+02  1.136E-25  1.402E-15
4.613E+02  1.175E-25  1.437E-15
4.571E+02  1.215E-25  1.473E-15
4.529E+02  1.257E-25  1.510E-15
4.487E+02  1.300E-25  1.547E-15
4.446E+02  1.344E-25  1.585E-15
4.406E+02  1.390E-25  1.624E-15
4.365E+02  1.437E-25  1.664E-15
4.325E+02  1.486E-25  1.705E-15
4.285E+02  1.536E-25  1.746E-15
4.246E+02  1.588E-25  1.789E-15
4.207E+02  1.641E-25  1.832E-15
4.169E+02  1.696E-25  1.876E-15
4.130E+02  1.753E-25  1.921E-15
4.093E+02  1.812E-25  1.967E-15
4.055E+02  1.872E-25  2.014E-15
4.018E+02  1.935E-25  2.062E-15
3.981E+02  1.999E-25  2.111E-15
3.945E+02  2.065E-25  2.161E-15
3.908E+02  2.133E-25  2.211E-15
3.873E+02  2.203E-25  2.263E-15
3.837E+02  2.276E-25  2.316E-15
3.802E+02  2.350E-25  2.370E-15
3.767E+02  2.427E-25  2.425E-15
3.733E+02  2.506E-25  2.481E-15
3.698E+02  2.587E-25  2.538E-15
3.664E+02  2.670E-25  2.596E-15
3.631E+02  2.757E-25  2.655E-15
3.597E+02  2.845E-25  2.715E-15
3.565E+02  2.936E-25  2.776E-15
3.532E+02  3.030E-25  2.839E-15
3.499E+02  3.126E-25  2.902E-15
3.467E+02  3.225E-25  2.966E-15
3.436E+02  3.327E-25  3.032E-15
3.404E+02  3.432E-25  3.099E-15
3.373E+02  3.539E-25  3.167E-15
3.342E+02  3.650E-25  3.236E-15
3.311E+02  3.764E-25  3.306E-15
3.281E+02  3.880E-25  3.377E-15
3.251E+02  4.000E-25  3.449E-15
3.221E+02  4.123E-25  3.523E-15
3.192E+02  4.249E-25  3.597E-15
3.162E+02  4.379E-25  3.673E-15
3.133E+02  4.512E-25  3.750E-15
3.105E+02  4.648E-25  3.828E-15
3.076E+02  4.788E-25  3.907E-15
3.048E+02  4.932E-25  3.987E-15
3.020E+02  5.079E-25  4.069E-15
2.992E+02  5.230E-25  4.151E-15
2.965E+02  5.385E-25  4.235E-15
2.938E+02  5.543E-25  4.320E-15
2.911E+02  5.706E-25  4.405E-15
2.884E+02  5.872E-25  4.492E-15
2.858E+02  6.043E-25  4.580E-15
2.831E+02  6.217E-25  4.669E-15
2.805E+02  6.396E-25  4.760E-15
2.780E+02  6.579E-25  4.851E-15
2.754E+02  6.766E-25  4.943E-15
2.729E+02  6.958E-25  5.037E-15
2.704E+02  7.155E-25  5.132E-15
2.679E+02  7.356E-25  5.228E-15
2.655E+02  7.562E-25  5.325E-15
2.630E+02  7.772E-25  5.423E-15
2.606E+02  7.988E-25  5.522E-15
2.582E+02  8.207E-25  5.622E-15
2.559E+02  8.431E-25  5.722E-15
2.535E+02  8.658E-25  5.822E-15
2.512E+02  8.889E-25  5.923E-15
2.489E+02  9.121E-25  6.022E-15
2.466E+02  9.353E-25  6.118E-15
2.443E+02  9.588E-25  6.214E-15
2.421E+02  9.825E-25  6.310E-15
2.399E+02  1.007E-24  6.404E-15
2.377E+02  1.030E-24  6.497E-15
2.355E+02  1.055E-24  6.590E-15
2.333E+02  1.080E-24  6.682E-15
2.312E+02  1.105E-24  6.775E-15
2.291E+02  1.130E-24  6.868E-15
2.270E+02  1.156E-24  6.961E-15
2.249E+02  1.182E-24  7.053E-15
2.228E+02  1.209E-24  7.146E-15
2.208E+02  1.236E-24  7.239E-15
2.188E+02  1.263E-24  7.332E-15
2.168E+02  1.291E-24  7.424E-15
2.148E+02  1.319E-24  7.516E-15
2.128E+02  1.348E-24  7.608E-15
2.109E+02  1.377E-24  7.699E-15
2.089E+02  1.406E-24  7.791E-15
2.070E+02  1.435E-24  7.881E-15
2.051E+02  1.465E-24  7.971E-15
2.032E+02  1.495E-24  8.061E-15
2.014E+02  1.526E-24  8.151E-15
1.995E+02  1.557E-24  8.240E-15
1.977E+02  1.588E-24  8.328E-15
1.959E+02  1.620E-24  8.415E-15
1.941E+02  1.651E-24  8.502E-15
1.923E+02  1.684E-24  8.588E-15
1.905E+02  1.716E-24  8.674E-15
1.888E+02  1.749E-24  8.759E-15
1.871E+02  1.782E-24  8.844E-15
1.854E+02  1.816E-24  8.927E-15
1.837E+02  1.850E-24  9.010E-15
1.820E+02  1.884E-24  9.093E-15
1.803E+02  1.918E-24  9.174E-15
1.786E+02  1.953E-24  9.255E-15
1.770E+02  1.988E-24  9.335E-15
1.754E+02  2.024E-24  9.415E-15
1.738E+02  2.060E-24  9.494E-15
1.722E+02  2.096E-24  9.573E-15
1.706E+02  2.132E-24  9.650E-15
1.690E+02  2.169E-24  9.728E-15
1.675E+02  2.207E-24  9.805E-15
1.660E+02  2.245E-24  9.881E-15
1.644E+02  2.283E-24  9.958E-15
1.629E+02  2.322E-24  1.003E-14
1.614E+02  2.361E-24  1.011E-14
1.600E+02  2.401E-24  1.019E-14
1.585E+02  2.441E-24  1.026E-14
1.570E+02  2.482E-24  1.034E-14
1.556E+02  2.523E-24  1.041E-14
1.542E+02  2.566E-24  1.049E-14
1.528E+02  2.608E-24  1.057E-14
1.514E+02  2.652E-24  1.065E-14
1.500E+02  2.696E-24  1.072E-14
1.486E+02  2.740E-24  1.080E-14
1.472E+02  2.785E-24  1.088E-14
1.459E+02  2.829E-24  1.095E-14
1.445E+02  2.873E-24  1.101E-14
1.432E+02  2.915E-24  1.107E-14
1.419E+02  2.954E-24  1.112E-14
1.406E+02  2.991E-24  1.115E-14
1.393E+02  3.023E-24  1.117E-14
1.380E+02  3.051E-24  1.117E-14
1.368E+02  3.074E-24  1.115E-14
1.355E+02  3.094E-24  1.112E-14
1.343E+02  3.111E-24  1.108E-14
1.330E+02  3.127E-24  1.104E-14
1.318E+02  3.142E-24  1.099E-14
1.306E+02  3.156E-24  1.093E-14
1.294E+02  3.171E-24  1.088E-14
1.282E+02  3.186E-24  1.084E-14
1.271E+02  3.201E-24  1.079E-14
1.259E+02  3.217E-24  1.074E-14
1.247E+02  3.234E-24  1.070E-14
1.236E+02  3.251E-24  1.066E-14
1.225E+02  3.268E-24  1.062E-14
1.213E+02  3.287E-24  1.058E-14
1.202E+02  3.305E-24  1.054E-14
1.191E+02  3.324E-24  1.050E-14
1.180E+02  3.343E-24  1.047E-14
1.169E+02  3.362E-24  1.043E-14
1.159E+02  3.381E-24  1.039E-14
1.148E+02  3.400E-24  1.035E-14
1.138E+02  3.419E-24  1.032E-14
1.127E+02  3.438E-24  1.028E-14
1.117E+02  3.458E-24  1.024E-14
1.107E+02  3.477E-24  1.021E-14
1.096E+02  3.497E-24  1.017E-14
1.086E+02  3.516E-24  1.013E-14
1.076E+02  3.535E-24  1.009E-14
1.067E+02  3.554E-24  1.006E-14
1.057E+02  3.573E-24  1.002E-14
1.047E+02  3.591E-24  9.975E-15
1.038E+02  3.610E-24  9.934E-15
1.028E+02  3.627E-24  9.892E-15
1.019E+02  3.645E-24  9.848E-15
1.009E+02  3.662E-24  9.804E-15
1.000E+02  3.679E-24  9.758E-15
9.908E+01  3.695E-24  9.711E-15
9.817E+01  3.711E-24  9.663E-15
9.727E+01  3.726E-24  9.614E-15
9.638E+01  3.741E-24  9.564E-15
9.550E+01  3.755E-24  9.513E-15
9.462E+01  3.769E-24  9.461E-15
9.376E+01  3.783E-24  9.408E-15
9.290E+01  3.796E-24  9.353E-15
9.204E+01  3.808E-24  9.298E-15
9.120E+01  3.820E-24  9.241E-15
9.036E+01  3.831E-24  9.184E-15
8.954E+01  3.842E-24  9.125E-15
8.872E+01  3.853E-24  9.066E-15
8.790E+01  3.863E-24  9.007E-15
8.710E+01  3.872E-24  8.946E-15
8.630E+01  3.882E-24  8.885E-15
8.551E+01  3.890E-24  8.824E-15
8.472E+01  3.898E-24  8.760E-15
8.395E+01  3.906E-24  8.697E-15
8.318E+01  3.913E-24  8.634E-15
8.241E+01  3.920E-24  8.569E-15
8.166E+01  3.926E-24  8.505E-15
8.091E+01  3.932E-24  8.440E-15
8.017E+01  3.938E-24  8.374E-15
7.943E+01  3.943E-24  8.308E-15
7.870E+01  3.947E-24  8.241E-15
7.798E+01  3.951E-24  8.173E-15
7.727E+01  3.955E-24  8.106E-15
7.656E+01  3.958E-24  8.037E-15
7.586E+01  3.960E-24  7.968E-15
7.516E+01  3.962E-24  7.899E-15
7.447E+01  3.964E-24  7.830E-15
7.379E+01  3.964E-24  7.759E-15
7.311E+01  3.964E-24  7.689E-15
7.244E+01  3.964E-24  7.617E-15
7.178E+01  3.963E-24  7.546E-15
7.112E+01  3.962E-24  7.474E-15
7.047E+01  3.961E-24  7.403E-15
6.982E+01  3.959E-24  7.333E-15
6.918E+01  3.957E-24  7.261E-15
6.855E+01  3.954E-24  7.190E-15
6.792E+01  3.951E-24  7.118E-15
6.730E+01  3.947E-24  7.046E-15
6.668E+01  3.943E-24  6.974E-15
6.607E+01  3.939E-24  6.903E-15
6.546E+01  3.934E-24  6.831E-15
6.486E+01  3.929E-24  6.759E-15
6.427E+01  3.923E-24  6.688E-15
6.368E+01  3.917E-24  6.616E-15
6.310E+01  3.911E-24  6.545E-15
6.252E+01  3.904E-24  6.474E-15
6.194E+01  3.897E-24  6.403E-15
6.138E+01  3.890E-24  6.333E-15
6.081E+01  3.882E-24  6.263E-15
6.026E+01  3.874E-24  6.192E-15
5.970E+01  3.866E-24  6.122E-15
5.916E+01  3.857E-24  6.053E-15
5.861E+01  3.848E-24  5.983E-15
5.808E+01  3.839E-24  5.913E-15
5.754E+01  3.829E-24  5.844E-15
5.702E+01  3.819E-24  5.776E-15
5.649E+01  3.809E-24  5.708E-15
5.598E+01  3.798E-24  5.640E-15
5.546E+01  3.788E-24  5.573E-15
5.495E+01  3.777E-24  5.506E-15
5.445E+01  3.766E-24  5.439E-15
5.395E+01  3.755E-24  5.373E-15
5.346E+01  3.743E-24  5.308E-15
5.297E+01  3.731E-24  5.242E-15
5.248E+01  3.719E-24  5.178E-15
5.200E+01  3.707E-24  5.113E-15
5.152E+01  3.695E-24  5.049E-15
5.105E+01  3.682E-24  4.985E-15
5.058E+01  3.669E-24  4.922E-15
5.012E+01  3.655E-24  4.859E-15
4.966E+01  3.642E-24  4.797E-15
