Dust emission from Draine & Li (2007): ApJ 657, 810-837
================================================================
         8 = grain model
 4.000E-08 4.000E-01 0.000E+00 = a_01 (cm) , sigma_1 , b_C1/0.92
 2.500E-07 4.000E-01 0.000E+00 = a_02 (cm) , sigma_2 , b_C2/0.92
 2.000E-01 2.000E-01 1.000E+00 = Umin , Umax, beta (dN/dU propto U^{-beta})
 2.000E-01 = <U> 
     mmp83 = radfield
 1.278E-25 = power/H (erg s-1)
 band   nu*P_nu(band) j_nu(band)
 (um)   (erg s-1 H-1)(Jy cm2 sr-1 H-1)
1.270E+00  2.768E-28  9.324E-21 COBE-DIRBE
2.220E+00  4.811E-28  2.833E-20 COBE-DIRBE
3.530E+00  5.346E-28  5.006E-20 COBE-DIRBE
4.880E+00  5.092E-28  6.592E-20 COBE-DIRBE
1.229E+01  4.785E-27  1.560E-18 COBE-DIRBE
2.079E+01  6.569E-27  3.623E-18 COBE-DIRBE
5.599E+01  1.003E-26  1.490E-17 COBE-DIRBE
9.770E+01  3.509E-26  9.093E-17 COBE-DIRBE
1.479E+02  8.337E-26  3.270E-16 COBE-DIRBE
2.479E+02  7.719E-26  5.075E-16 COBE-DIRBE
1.200E+01  4.890E-27  1.556E-18 IRAS
2.500E+01  6.759E-27  4.482E-18 IRAS
6.000E+01  1.101E-26  1.753E-17 IRAS
1.000E+02  3.765E-26  9.988E-17 IRAS
3.550E+00  5.356E-28  5.044E-20 SST-IRAC
4.493E+00  5.165E-28  6.156E-20 SST-IRAC
5.731E+00  5.256E-28  7.990E-20 SST-IRAC
7.872E+00  2.951E-27  6.162E-19 SST-IRAC
2.368E+01  6.510E-27  4.089E-18 SST-MIPS
7.142E+01  1.357E-26  2.571E-17 SST-MIPS
1.559E+02  8.707E-26  3.601E-16 SST-MIPS
1.600E+01  4.037E-27  1.713E-18 SST-IRSPU
2.200E+01  6.881E-27  4.016E-18 SST-IRSPU











lambda    nu*dP/dnu     j_nu
 (um)   (erg s-1 H-1)(Jy cm2 sr-1 H-1)
1.000E+04  1.215E-31  3.222E-20
9.908E+03  1.259E-31  3.308E-20
9.817E+03  1.304E-31  3.396E-20
9.727E+03  1.351E-31  3.486E-20
9.638E+03  1.400E-31  3.578E-20
9.550E+03  1.450E-31  3.673E-20
9.462E+03  1.502E-31  3.771E-20
9.376E+03  1.557E-31  3.871E-20
9.290E+03  1.613E-31  3.974E-20
9.204E+03  1.671E-31  4.079E-20
9.120E+03  1.731E-31  4.187E-20
9.036E+03  1.793E-31  4.299E-20
8.954E+03  1.858E-31  4.412E-20
8.872E+03  1.924E-31  4.528E-20
8.790E+03  1.993E-31  4.647E-20
8.710E+03  2.065E-31  4.770E-20
8.630E+03  2.139E-31  4.895E-20
8.551E+03  2.215E-31  5.025E-20
8.472E+03  2.295E-31  5.157E-20
8.395E+03  2.377E-31  5.294E-20
8.318E+03  2.463E-31  5.433E-20
8.241E+03  2.551E-31  5.577E-20
8.166E+03  2.643E-31  5.725E-20
8.091E+03  2.738E-31  5.877E-20
8.017E+03  2.837E-31  6.032E-20
7.943E+03  2.939E-31  6.193E-20
7.870E+03  3.045E-31  6.357E-20
7.798E+03  3.155E-31  6.526E-20
7.727E+03  3.269E-31  6.700E-20
7.656E+03  3.387E-31  6.878E-20
7.586E+03  3.509E-31  7.061E-20
7.516E+03  3.636E-31  7.249E-20
7.447E+03  3.767E-31  7.442E-20
7.379E+03  3.904E-31  7.641E-20
7.311E+03  4.045E-31  7.845E-20
7.244E+03  4.192E-31  8.055E-20
7.178E+03  4.344E-31  8.270E-20
7.112E+03  4.501E-31  8.491E-20
7.047E+03  4.664E-31  8.719E-20
6.982E+03  4.833E-31  8.952E-20
6.918E+03  5.009E-31  9.191E-20
6.855E+03  5.190E-31  9.437E-20
6.792E+03  5.378E-31  9.690E-20
6.730E+03  5.574E-31  9.950E-20
6.668E+03  5.776E-31  1.022E-19
6.607E+03  5.986E-31  1.049E-19
6.546E+03  6.203E-31  1.077E-19
6.486E+03  6.429E-31  1.106E-19
6.427E+03  6.663E-31  1.136E-19
6.368E+03  6.906E-31  1.166E-19
6.310E+03  7.157E-31  1.198E-19
6.252E+03  7.418E-31  1.230E-19
6.194E+03  7.689E-31  1.263E-19
6.138E+03  7.969E-31  1.297E-19
6.081E+03  8.260E-31  1.333E-19
6.026E+03  8.562E-31  1.369E-19
5.970E+03  8.875E-31  1.406E-19
5.916E+03  9.200E-31  1.444E-19
5.861E+03  9.536E-31  1.483E-19
5.808E+03  9.885E-31  1.523E-19
5.754E+03  1.025E-30  1.564E-19
5.702E+03  1.062E-30  1.607E-19
5.649E+03  1.101E-30  1.650E-19
5.598E+03  1.142E-30  1.695E-19
5.546E+03  1.184E-30  1.741E-19
5.495E+03  1.227E-30  1.789E-19
5.445E+03  1.272E-30  1.837E-19
5.395E+03  1.319E-30  1.887E-19
5.346E+03  1.367E-30  1.939E-19
5.297E+03  1.418E-30  1.992E-19
5.248E+03  1.470E-30  2.046E-19
5.200E+03  1.524E-30  2.102E-19
5.152E+03  1.580E-30  2.159E-19
5.105E+03  1.638E-30  2.218E-19
5.058E+03  1.699E-30  2.279E-19
5.012E+03  1.761E-30  2.341E-19
4.966E+03  1.826E-30  2.405E-19
4.920E+03  1.893E-30  2.471E-19
4.875E+03  1.963E-30  2.539E-19
4.831E+03  2.036E-30  2.608E-19
4.786E+03  2.111E-30  2.680E-19
4.742E+03  2.189E-30  2.754E-19
4.699E+03  2.270E-30  2.829E-19
4.656E+03  2.354E-30  2.907E-19
4.613E+03  2.441E-30  2.987E-19
4.571E+03  2.531E-30  3.069E-19
4.529E+03  2.625E-30  3.154E-19
4.487E+03  2.722E-30  3.241E-19
4.446E+03  2.823E-30  3.330E-19
4.406E+03  2.928E-30  3.422E-19
4.365E+03  3.037E-30  3.516E-19
4.325E+03  3.150E-30  3.613E-19
4.285E+03  3.267E-30  3.713E-19
4.246E+03  3.388E-30  3.816E-19
4.207E+03  3.514E-30  3.922E-19
4.169E+03  3.645E-30  4.030E-19
4.130E+03  3.781E-30  4.142E-19
4.093E+03  3.921E-30  4.257E-19
4.055E+03  4.067E-30  4.375E-19
4.018E+03  4.219E-30  4.497E-19
3.981E+03  4.376E-30  4.621E-19
3.945E+03  4.539E-30  4.749E-19
3.908E+03  4.708E-30  4.881E-19
3.873E+03  4.884E-30  5.017E-19
3.837E+03  5.066E-30  5.156E-19
3.802E+03  5.255E-30  5.300E-19
3.767E+03  5.451E-30  5.447E-19
3.733E+03  5.655E-30  5.599E-19
3.698E+03  5.866E-30  5.755E-19
3.664E+03  6.086E-30  5.915E-19
3.631E+03  6.313E-30  6.080E-19
3.597E+03  6.550E-30  6.250E-19
3.565E+03  6.795E-30  6.425E-19
3.532E+03  7.050E-30  6.605E-19
3.499E+03  7.314E-30  6.790E-19
3.467E+03  7.589E-30  6.980E-19
3.436E+03  7.874E-30  7.176E-19
3.404E+03  8.170E-30  7.377E-19
3.373E+03  8.477E-30  7.584E-19
3.342E+03  8.795E-30  7.797E-19
3.311E+03  9.126E-30  8.016E-19
3.281E+03  9.470E-30  8.241E-19
3.251E+03  9.826E-30  8.473E-19
3.221E+03  1.020E-29  8.712E-19
3.192E+03  1.058E-29  8.957E-19
3.162E+03  1.098E-29  9.210E-19
3.133E+03  1.139E-29  9.470E-19
3.105E+03  1.182E-29  9.737E-19
3.076E+03  1.227E-29  1.001E-18
3.048E+03  1.273E-29  1.029E-18
3.020E+03  1.321E-29  1.059E-18
2.992E+03  1.371E-29  1.088E-18
2.965E+03  1.423E-29  1.119E-18
2.938E+03  1.477E-29  1.151E-18
2.911E+03  1.532E-29  1.183E-18
2.884E+03  1.590E-29  1.216E-18
2.858E+03  1.650E-29  1.251E-18
2.831E+03  1.712E-29  1.286E-18
2.805E+03  1.777E-29  1.322E-18
2.780E+03  1.844E-29  1.360E-18
2.754E+03  1.914E-29  1.398E-18
2.729E+03  1.986E-29  1.438E-18
2.704E+03  2.061E-29  1.478E-18
2.679E+03  2.139E-29  1.520E-18
2.655E+03  2.220E-29  1.563E-18
2.630E+03  2.304E-29  1.608E-18
2.606E+03  2.392E-29  1.653E-18
2.582E+03  2.482E-29  1.700E-18
2.559E+03  2.576E-29  1.748E-18
2.535E+03  2.674E-29  1.798E-18
2.512E+03  2.775E-29  1.849E-18
2.489E+03  2.881E-29  1.902E-18
2.466E+03  2.990E-29  1.956E-18
2.443E+03  3.103E-29  2.011E-18
2.421E+03  3.221E-29  2.069E-18
2.399E+03  3.344E-29  2.128E-18
2.377E+03  3.471E-29  2.188E-18
2.355E+03  3.603E-29  2.250E-18
2.333E+03  3.739E-29  2.315E-18
2.312E+03  3.882E-29  2.381E-18
2.291E+03  4.029E-29  2.448E-18
2.270E+03  4.182E-29  2.518E-18
2.249E+03  4.341E-29  2.590E-18
2.228E+03  4.506E-29  2.664E-18
2.208E+03  4.678E-29  2.740E-18
2.188E+03  4.856E-29  2.818E-18
2.168E+03  5.040E-29  2.898E-18
2.148E+03  5.232E-29  2.981E-18
2.128E+03  5.431E-29  3.066E-18
2.109E+03  5.638E-29  3.153E-18
2.089E+03  5.852E-29  3.243E-18
2.070E+03  6.075E-29  3.336E-18
2.051E+03  6.306E-29  3.431E-18
2.032E+03  6.546E-29  3.529E-18
2.014E+03  6.795E-29  3.629E-18
1.995E+03  7.053E-29  3.733E-18
1.977E+03  7.321E-29  3.839E-18
1.959E+03  7.599E-29  3.949E-18
1.941E+03  7.888E-29  4.061E-18
1.923E+03  8.188E-29  4.177E-18
1.905E+03  8.499E-29  4.295E-18
1.888E+03  8.821E-29  4.418E-18
1.871E+03  9.156E-29  4.544E-18
1.854E+03  9.504E-29  4.673E-18
1.837E+03  9.865E-29  4.806E-18
1.820E+03  1.024E-28  4.942E-18
1.803E+03  1.063E-28  5.083E-18
1.786E+03  1.103E-28  5.227E-18
1.770E+03  1.145E-28  5.376E-18
1.754E+03  1.188E-28  5.529E-18
1.738E+03  1.233E-28  5.686E-18
1.722E+03  1.280E-28  5.847E-18
1.706E+03  1.329E-28  6.013E-18
1.690E+03  1.379E-28  6.184E-18
1.675E+03  1.431E-28  6.359E-18
1.660E+03  1.485E-28  6.539E-18
1.644E+03  1.542E-28  6.724E-18
1.629E+03  1.600E-28  6.915E-18
1.614E+03  1.660E-28  7.110E-18
1.600E+03  1.723E-28  7.311E-18
1.585E+03  1.788E-28  7.518E-18
1.570E+03  1.856E-28  7.730E-18
1.556E+03  1.926E-28  7.948E-18
1.542E+03  1.998E-28  8.172E-18
1.528E+03  2.074E-28  8.402E-18
1.514E+03  2.152E-28  8.639E-18
1.500E+03  2.233E-28  8.882E-18
1.486E+03  2.317E-28  9.132E-18
1.472E+03  2.404E-28  9.388E-18
1.459E+03  2.494E-28  9.652E-18
1.445E+03  2.588E-28  9.923E-18
1.432E+03  2.685E-28  1.020E-17
1.419E+03  2.786E-28  1.049E-17
1.406E+03  2.891E-28  1.078E-17
1.393E+03  2.999E-28  1.108E-17
1.380E+03  3.111E-28  1.139E-17
1.368E+03  3.228E-28  1.171E-17
1.355E+03  3.349E-28  1.204E-17
1.343E+03  3.474E-28  1.237E-17
1.330E+03  3.603E-28  1.272E-17
1.318E+03  3.738E-28  1.307E-17
1.306E+03  3.877E-28  1.343E-17
1.294E+03  4.022E-28  1.381E-17
1.282E+03  4.171E-28  1.419E-17
1.271E+03  4.326E-28  1.458E-17
1.259E+03  4.487E-28  1.498E-17
1.247E+03  4.653E-28  1.540E-17
1.236E+03  4.826E-28  1.582E-17
1.225E+03  5.005E-28  1.626E-17
1.213E+03  5.190E-28  1.670E-17
1.202E+03  5.381E-28  1.716E-17
1.191E+03  5.580E-28  1.763E-17
1.180E+03  5.786E-28  1.811E-17
1.169E+03  5.998E-28  1.861E-17
1.159E+03  6.219E-28  1.912E-17
1.148E+03  6.447E-28  1.964E-17
1.138E+03  6.684E-28  2.017E-17
1.127E+03  6.929E-28  2.072E-17
1.117E+03  7.182E-28  2.128E-17
1.107E+03  7.445E-28  2.185E-17
1.096E+03  7.716E-28  2.244E-17
1.086E+03  7.997E-28  2.305E-17
1.076E+03  8.288E-28  2.367E-17
1.067E+03  8.589E-28  2.430E-17
1.057E+03  8.901E-28  2.495E-17
1.047E+03  9.223E-28  2.562E-17
1.038E+03  9.557E-28  2.630E-17
1.028E+03  9.901E-28  2.700E-17
1.019E+03  1.026E-27  2.772E-17
1.009E+03  1.063E-27  2.845E-17
1.000E+03  1.101E-27  2.920E-17
9.908E+02  1.140E-27  2.997E-17
9.817E+02  1.181E-27  3.076E-17
9.727E+02  1.224E-27  3.157E-17
9.638E+02  1.267E-27  3.240E-17
9.550E+02  1.313E-27  3.325E-17
9.462E+02  1.359E-27  3.412E-17
9.376E+02  1.408E-27  3.501E-17
9.290E+02  1.458E-27  3.592E-17
9.204E+02  1.509E-27  3.685E-17
9.120E+02  1.563E-27  3.780E-17
9.036E+02  1.618E-27  3.878E-17
8.954E+02  1.675E-27  3.978E-17
8.872E+02  1.734E-27  4.079E-17
8.790E+02  1.794E-27  4.183E-17
8.710E+02  1.857E-27  4.290E-17
8.630E+02  1.922E-27  4.399E-17
8.551E+02  1.988E-27  4.510E-17
8.472E+02  2.057E-27  4.624E-17
8.395E+02  2.129E-27  4.740E-17
8.318E+02  2.202E-27  4.859E-17
8.241E+02  2.278E-27  4.980E-17
8.166E+02  2.356E-27  5.104E-17
8.091E+02  2.437E-27  5.230E-17
8.017E+02  2.520E-27  5.359E-17
7.943E+02  2.606E-27  5.490E-17
7.870E+02  2.694E-27  5.625E-17
7.798E+02  2.786E-27  5.763E-17
7.727E+02  2.880E-27  5.903E-17
7.656E+02  2.977E-27  6.046E-17
7.586E+02  3.077E-27  6.192E-17
7.516E+02  3.180E-27  6.341E-17
7.447E+02  3.287E-27  6.494E-17
7.379E+02  3.397E-27  6.650E-17
7.311E+02  3.511E-27  6.809E-17
7.244E+02  3.628E-27  6.972E-17
7.178E+02  3.749E-27  7.138E-17
7.112E+02  3.873E-27  7.308E-17
7.047E+02  4.002E-27  7.481E-17
6.982E+02  4.134E-27  7.657E-17
6.918E+02  4.271E-27  7.837E-17
6.855E+02  4.411E-27  8.021E-17
6.792E+02  4.556E-27  8.209E-17
6.730E+02  4.705E-27  8.399E-17
6.668E+02  4.858E-27  8.593E-17
6.607E+02  5.016E-27  8.792E-17
6.546E+02  5.180E-27  8.994E-17
6.486E+02  5.349E-27  9.203E-17
6.427E+02  5.523E-27  9.415E-17
6.368E+02  5.702E-27  9.631E-17
6.310E+02  5.886E-27  9.852E-17
6.252E+02  6.076E-27  1.008E-16
6.194E+02  6.272E-27  1.031E-16
6.138E+02  6.473E-27  1.054E-16
6.081E+02  6.681E-27  1.078E-16
6.026E+02  6.895E-27  1.102E-16
5.970E+02  7.115E-27  1.127E-16
5.916E+02  7.342E-27  1.152E-16
5.861E+02  7.575E-27  1.178E-16
5.808E+02  7.815E-27  1.204E-16
5.754E+02  8.062E-27  1.231E-16
5.702E+02  8.316E-27  1.258E-16
5.649E+02  8.577E-27  1.285E-16
5.598E+02  8.846E-27  1.314E-16
5.546E+02  9.123E-27  1.342E-16
5.495E+02  9.408E-27  1.371E-16
5.445E+02  9.701E-27  1.401E-16
5.395E+02  1.000E-26  1.431E-16
5.346E+02  1.031E-26  1.462E-16
5.297E+02  1.063E-26  1.493E-16
5.248E+02  1.095E-26  1.525E-16
5.200E+02  1.129E-26  1.557E-16
5.152E+02  1.164E-26  1.590E-16
5.105E+02  1.199E-26  1.624E-16
5.058E+02  1.235E-26  1.658E-16
5.012E+02  1.273E-26  1.692E-16
4.966E+02  1.311E-26  1.727E-16
4.920E+02  1.351E-26  1.763E-16
4.875E+02  1.391E-26  1.799E-16
4.831E+02  1.432E-26  1.836E-16
4.786E+02  1.475E-26  1.873E-16
4.742E+02  1.519E-26  1.910E-16
4.699E+02  1.563E-26  1.948E-16
4.656E+02  1.609E-26  1.987E-16
4.613E+02  1.656E-26  2.027E-16
4.571E+02  1.704E-26  2.067E-16
4.529E+02  1.754E-26  2.107E-16
4.487E+02  1.804E-26  2.148E-16
4.446E+02  1.856E-26  2.189E-16
4.406E+02  1.909E-26  2.231E-16
4.365E+02  1.964E-26  2.274E-16
4.325E+02  2.019E-26  2.317E-16
4.285E+02  2.076E-26  2.360E-16
4.246E+02  2.135E-26  2.404E-16
4.207E+02  2.194E-26  2.449E-16
4.169E+02  2.255E-26  2.494E-16
4.130E+02  2.317E-26  2.539E-16
4.093E+02  2.381E-26  2.585E-16
4.055E+02  2.447E-26  2.632E-16
4.018E+02  2.513E-26  2.678E-16
3.981E+02  2.581E-26  2.726E-16
3.945E+02  2.651E-26  2.774E-16
3.908E+02  2.722E-26  2.822E-16
3.873E+02  2.795E-26  2.871E-16
3.837E+02  2.869E-26  2.920E-16
3.802E+02  2.944E-26  2.969E-16
3.767E+02  3.021E-26  3.019E-16
3.733E+02  3.100E-26  3.069E-16
3.698E+02  3.180E-26  3.120E-16
3.664E+02  3.262E-26  3.171E-16
3.631E+02  3.345E-26  3.222E-16
3.597E+02  3.429E-26  3.273E-16
3.565E+02  3.516E-26  3.324E-16
3.532E+02  3.603E-26  3.376E-16
3.499E+02  3.693E-26  3.428E-16
3.467E+02  3.784E-26  3.480E-16
3.436E+02  3.876E-26  3.532E-16
3.404E+02  3.970E-26  3.585E-16
3.373E+02  4.065E-26  3.637E-16
3.342E+02  4.162E-26  3.690E-16
3.311E+02  4.261E-26  3.742E-16
3.281E+02  4.360E-26  3.795E-16
3.251E+02  4.461E-26  3.847E-16
3.221E+02  4.564E-26  3.899E-16
3.192E+02  4.668E-26  3.952E-16
3.162E+02  4.773E-26  4.004E-16
3.133E+02  4.879E-26  4.055E-16
3.105E+02  4.987E-26  4.107E-16
3.076E+02  5.096E-26  4.158E-16
3.048E+02  5.207E-26  4.210E-16
3.020E+02  5.318E-26  4.260E-16
2.992E+02  5.431E-26  4.311E-16
2.965E+02  5.545E-26  4.361E-16
2.938E+02  5.660E-26  4.410E-16
2.911E+02  5.776E-26  4.459E-16
2.884E+02  5.892E-26  4.508E-16
2.858E+02  6.010E-26  4.556E-16
2.831E+02  6.128E-26  4.603E-16
2.805E+02  6.248E-26  4.649E-16
2.780E+02  6.367E-26  4.695E-16
2.754E+02  6.488E-26  4.740E-16
2.729E+02  6.610E-26  4.785E-16
2.704E+02  6.733E-26  4.829E-16
2.679E+02  6.856E-26  4.872E-16
2.655E+02  6.980E-26  4.915E-16
2.630E+02  7.104E-26  4.957E-16
2.606E+02  7.229E-26  4.997E-16
2.582E+02  7.353E-26  5.037E-16
2.559E+02  7.477E-26  5.074E-16
2.535E+02  7.598E-26  5.110E-16
2.512E+02  7.719E-26  5.143E-16
2.489E+02  7.833E-26  5.171E-16
2.466E+02  7.941E-26  5.194E-16
2.443E+02  8.046E-26  5.215E-16
2.421E+02  8.148E-26  5.233E-16
2.399E+02  8.246E-26  5.247E-16
2.377E+02  8.338E-26  5.257E-16
2.355E+02  8.427E-26  5.265E-16
2.333E+02  8.515E-26  5.271E-16
2.312E+02  8.601E-26  5.275E-16
2.291E+02  8.684E-26  5.277E-16
2.270E+02  8.765E-26  5.277E-16
2.249E+02  8.843E-26  5.275E-16
2.228E+02  8.919E-26  5.272E-16
2.208E+02  8.992E-26  5.267E-16
2.188E+02  9.063E-26  5.259E-16
2.168E+02  9.131E-26  5.250E-16
2.148E+02  9.195E-26  5.239E-16
2.128E+02  9.257E-26  5.225E-16
2.109E+02  9.315E-26  5.210E-16
2.089E+02  9.370E-26  5.193E-16
2.070E+02  9.421E-26  5.174E-16
2.051E+02  9.469E-26  5.152E-16
2.032E+02  9.514E-26  5.129E-16
2.014E+02  9.555E-26  5.104E-16
1.995E+02  9.592E-26  5.077E-16
1.977E+02  9.625E-26  5.047E-16
1.959E+02  9.654E-26  5.016E-16
1.941E+02  9.680E-26  4.984E-16
1.923E+02  9.701E-26  4.949E-16
1.905E+02  9.719E-26  4.912E-16
1.888E+02  9.733E-26  4.874E-16
1.871E+02  9.743E-26  4.835E-16
1.854E+02  9.749E-26  4.793E-16
1.837E+02  9.751E-26  4.750E-16
1.820E+02  9.749E-26  4.706E-16
1.803E+02  9.743E-26  4.660E-16
1.786E+02  9.733E-26  4.612E-16
1.770E+02  9.719E-26  4.564E-16
1.754E+02  9.702E-26  4.513E-16
1.738E+02  9.680E-26  4.462E-16
1.722E+02  9.655E-26  4.410E-16
1.706E+02  9.626E-26  4.356E-16
1.690E+02  9.594E-26  4.302E-16
1.675E+02  9.559E-26  4.247E-16
1.660E+02  9.521E-26  4.191E-16
1.644E+02  9.480E-26  4.135E-16
1.629E+02  9.436E-26  4.078E-16
1.614E+02  9.389E-26  4.021E-16
1.600E+02  9.341E-26  3.963E-16
1.585E+02  9.291E-26  3.906E-16
1.570E+02  9.239E-26  3.849E-16
1.556E+02  9.186E-26  3.792E-16
1.542E+02  9.133E-26  3.735E-16
1.528E+02  9.079E-26  3.679E-16
1.514E+02  9.026E-26  3.624E-16
1.500E+02  8.973E-26  3.569E-16
1.486E+02  8.921E-26  3.516E-16
1.472E+02  8.869E-26  3.464E-16
1.459E+02  8.815E-26  3.411E-16
1.445E+02  8.758E-26  3.358E-16
1.432E+02  8.695E-26  3.303E-16
1.419E+02  8.620E-26  3.245E-16
1.406E+02  8.531E-26  3.182E-16
1.393E+02  8.423E-26  3.113E-16
1.380E+02  8.297E-26  3.038E-16
1.368E+02  8.154E-26  2.958E-16
1.355E+02  7.998E-26  2.875E-16
1.343E+02  7.833E-26  2.790E-16
1.330E+02  7.665E-26  2.705E-16
1.318E+02  7.497E-26  2.622E-16
1.306E+02  7.331E-26  2.540E-16
1.294E+02  7.169E-26  2.461E-16
1.282E+02  7.011E-26  2.385E-16
1.271E+02  6.856E-26  2.311E-16
1.259E+02  6.705E-26  2.239E-16
1.247E+02  6.557E-26  2.170E-16
1.236E+02  6.413E-26  2.102E-16
1.225E+02  6.271E-26  2.037E-16
1.213E+02  6.131E-26  1.973E-16
1.202E+02  5.994E-26  1.912E-16
1.191E+02  5.858E-26  1.851E-16
1.180E+02  5.725E-26  1.792E-16
1.169E+02  5.592E-26  1.735E-16
1.159E+02  5.462E-26  1.679E-16
1.148E+02  5.333E-26  1.624E-16
1.138E+02  5.205E-26  1.571E-16
1.127E+02  5.080E-26  1.519E-16
1.117E+02  4.957E-26  1.468E-16
1.107E+02  4.835E-26  1.419E-16
1.096E+02  4.716E-26  1.372E-16
1.086E+02  4.598E-26  1.325E-16
1.076E+02  4.482E-26  1.280E-16
1.067E+02  4.368E-26  1.236E-16
1.057E+02  4.256E-26  1.193E-16
1.047E+02  4.146E-26  1.152E-16
1.038E+02  4.038E-26  1.111E-16
1.028E+02  3.931E-26  1.072E-16
1.019E+02  3.827E-26  1.034E-16
1.009E+02  3.724E-26  9.970E-17
1.000E+02  3.623E-26  9.611E-17
9.908E+01  3.525E-26  9.264E-17
9.817E+01  3.428E-26  8.928E-17
9.727E+01  3.333E-26  8.601E-17
9.638E+01  3.241E-26  8.286E-17
9.550E+01  3.151E-26  7.982E-17
9.462E+01  3.063E-26  7.688E-17
9.376E+01  2.977E-26  7.404E-17
9.290E+01  2.894E-26  7.131E-17
9.204E+01  2.813E-26  6.867E-17
9.120E+01  2.734E-26  6.613E-17
9.036E+01  2.657E-26  6.368E-17
8.954E+01  2.582E-26  6.133E-17
8.872E+01  2.510E-26  5.907E-17
8.790E+01  2.440E-26  5.690E-17
8.710E+01  2.372E-26  5.481E-17
8.630E+01  2.307E-26  5.281E-17
8.551E+01  2.244E-26  5.089E-17
8.472E+01  2.182E-26  4.904E-17
8.395E+01  2.123E-26  4.728E-17
8.318E+01  2.066E-26  4.558E-17
8.241E+01  2.010E-26  4.394E-17
8.166E+01  1.957E-26  4.239E-17
8.091E+01  1.906E-26  4.090E-17
8.017E+01  1.857E-26  3.948E-17
7.943E+01  1.809E-26  3.812E-17
7.870E+01  1.764E-26  3.682E-17
7.798E+01  1.720E-26  3.557E-17
7.727E+01  1.678E-26  3.438E-17
7.656E+01  1.637E-26  3.325E-17
7.586E+01  1.599E-26  3.217E-17
7.516E+01  1.562E-26  3.114E-17
7.447E+01  1.526E-26  3.015E-17
7.379E+01  1.492E-26  2.921E-17
7.311E+01  1.459E-26  2.831E-17
7.244E+01  1.428E-26  2.745E-17
7.178E+01  1.398E-26  2.662E-17
7.112E+01  1.370E-26  2.584E-17
7.047E+01  1.343E-26  2.510E-17
6.982E+01  1.317E-26  2.439E-17
6.918E+01  1.292E-26  2.372E-17
6.855E+01  1.269E-26  2.307E-17
6.792E+01  1.246E-26  2.245E-17
6.730E+01  1.225E-26  2.186E-17
6.668E+01  1.204E-26  2.130E-17
6.607E+01  1.185E-26  2.077E-17
6.546E+01  1.167E-26  2.026E-17
6.486E+01  1.149E-26  1.977E-17
6.427E+01  1.132E-26  1.930E-17
6.368E+01  1.116E-26  1.885E-17
6.310E+01  1.101E-26  1.843E-17
6.252E+01  1.087E-26  1.802E-17
6.194E+01  1.073E-26  1.763E-17
6.138E+01  1.060E-26  1.726E-17
6.081E+01  1.048E-26  1.690E-17
6.026E+01  1.036E-26  1.656E-17
5.970E+01  1.025E-26  1.623E-17
5.916E+01  1.014E-26  1.591E-17
5.861E+01  1.003E-26  1.560E-17
5.808E+01  9.935E-27  1.530E-17
5.754E+01  9.840E-27  1.502E-17
5.702E+01  9.750E-27  1.475E-17
5.649E+01  9.663E-27  1.448E-17
5.598E+01  9.580E-27  1.422E-17
5.546E+01  9.502E-27  1.398E-17
5.495E+01  9.427E-27  1.374E-17
5.445E+01  9.356E-27  1.351E-17
5.395E+01  9.287E-27  1.329E-17
5.346E+01  9.222E-27  1.308E-17
5.297E+01  9.157E-27  1.287E-17
5.248E+01  9.096E-27  1.266E-17
5.200E+01  9.037E-27  1.247E-17
5.152E+01  8.979E-27  1.227E-17
5.105E+01  8.923E-27  1.208E-17
5.058E+01  8.868E-27  1.190E-17
5.012E+01  8.816E-27  1.172E-17
4.966E+01  8.764E-27  1.154E-17
