Dust emission from Draine & Li (2007): ApJ 657, 810-837
================================================================
         3 = grain model
 4.000E-08 4.000E-01 1.500E-05 = a_01 (cm) , sigma_1 , b_C1/0.92
 2.500E-07 4.000E-01 5.000E-06 = a_02 (cm) , sigma_2 , b_C2/0.92
 1.200E+00 1.000E+05 2.000E+00 = Umin , Umax, beta (dN/dU propto U^{-beta})
 1.360E+01 = <U> 
     mmp83 = radfield
 6.045E-23 = power/H (erg s-1)
 band   nu*P_nu(band) j_nu(band)
 (um)   (erg s-1 H-1)(Jy cm2 sr-1 H-1)
1.270E+00  8.998E-26  3.031E-18 COBE-DIRBE
2.220E+00  1.141E-25  6.719E-18 COBE-DIRBE
3.530E+00  7.644E-25  7.158E-17 COBE-DIRBE
4.880E+00  3.693E-25  4.781E-17 COBE-DIRBE
1.229E+01  5.508E-24  1.796E-15 COBE-DIRBE
2.079E+01  1.242E-23  6.848E-15 COBE-DIRBE
5.599E+01  2.977E-23  4.422E-14 COBE-DIRBE
9.770E+01  1.848E-23  4.789E-14 COBE-DIRBE
1.479E+02  1.003E-23  3.935E-14 COBE-DIRBE
2.479E+02  2.633E-24  1.731E-14 COBE-DIRBE
1.200E+01  5.288E-24  1.683E-15 IRAS
2.500E+01  1.670E-23  1.108E-14 IRAS
6.000E+01  2.876E-23  4.578E-14 IRAS
1.000E+02  1.792E-23  4.754E-14 IRAS
3.550E+00  8.894E-25  8.375E-17 SST-IRAC
4.493E+00  2.536E-25  3.022E-17 SST-IRAC
5.731E+00  2.349E-24  3.571E-16 SST-IRAC
7.872E+00  6.459E-24  1.349E-15 SST-IRAC
2.368E+01  1.553E-23  9.757E-15 SST-MIPS
7.142E+01  2.277E-23  4.313E-14 SST-MIPS
1.559E+02  8.399E-24  3.473E-14 SST-MIPS
1.600E+01  6.708E-24  2.847E-15 SST-IRSPU
2.200E+01  1.480E-23  8.638E-15 SST-IRSPU











lambda    nu*dP/dnu     j_nu
 (um)   (erg s-1 H-1)(Jy cm2 sr-1 H-1)
1.000E+04  6.692E-31  1.775E-19
9.908E+03  6.937E-31  1.823E-19
9.817E+03  7.191E-31  1.873E-19
9.727E+03  7.455E-31  1.924E-19
9.638E+03  7.728E-31  1.976E-19
9.550E+03  8.011E-31  2.029E-19
9.462E+03  8.305E-31  2.084E-19
9.376E+03  8.609E-31  2.141E-19
9.290E+03  8.925E-31  2.199E-19
9.204E+03  9.252E-31  2.259E-19
9.120E+03  9.591E-31  2.320E-19
9.036E+03  9.942E-31  2.383E-19
8.954E+03  1.031E-30  2.448E-19
8.872E+03  1.068E-30  2.514E-19
8.790E+03  1.107E-30  2.581E-19
8.710E+03  1.148E-30  2.651E-19
8.630E+03  1.189E-30  2.723E-19
8.551E+03  1.233E-30  2.796E-19
8.472E+03  1.278E-30  2.872E-19
8.395E+03  1.325E-30  2.950E-19
8.318E+03  1.373E-30  3.030E-19
8.241E+03  1.424E-30  3.112E-19
8.166E+03  1.476E-30  3.197E-19
8.091E+03  1.530E-30  3.284E-19
8.017E+03  1.586E-30  3.373E-19
7.943E+03  1.644E-30  3.465E-19
7.870E+03  1.705E-30  3.559E-19
7.798E+03  1.767E-30  3.656E-19
7.727E+03  1.833E-30  3.756E-19
7.656E+03  1.900E-30  3.859E-19
7.586E+03  1.970E-30  3.964E-19
7.516E+03  2.043E-30  4.072E-19
7.447E+03  2.118E-30  4.184E-19
7.379E+03  2.196E-30  4.299E-19
7.311E+03  2.277E-30  4.416E-19
7.244E+03  2.361E-30  4.538E-19
7.178E+03  2.449E-30  4.662E-19
7.112E+03  2.539E-30  4.790E-19
7.047E+03  2.633E-30  4.922E-19
6.982E+03  2.731E-30  5.057E-19
6.918E+03  2.832E-30  5.196E-19
6.855E+03  2.936E-30  5.339E-19
6.792E+03  3.045E-30  5.486E-19
6.730E+03  3.158E-30  5.637E-19
6.668E+03  3.275E-30  5.793E-19
6.607E+03  3.397E-30  5.953E-19
6.546E+03  3.523E-30  6.117E-19
6.486E+03  3.654E-30  6.286E-19
6.427E+03  3.789E-30  6.460E-19
6.368E+03  3.930E-30  6.639E-19
6.310E+03  4.077E-30  6.823E-19
6.252E+03  4.228E-30  7.012E-19
6.194E+03  4.386E-30  7.207E-19
6.138E+03  4.550E-30  7.407E-19
6.081E+03  4.719E-30  7.613E-19
6.026E+03  4.896E-30  7.825E-19
5.970E+03  5.079E-30  8.043E-19
5.916E+03  5.268E-30  8.267E-19
5.861E+03  5.465E-30  8.498E-19
5.808E+03  5.670E-30  8.735E-19
5.754E+03  5.882E-30  8.979E-19
5.702E+03  6.103E-30  9.230E-19
5.649E+03  6.332E-30  9.488E-19
5.598E+03  6.569E-30  9.754E-19
5.546E+03  6.816E-30  1.003E-18
5.495E+03  7.072E-30  1.031E-18
5.445E+03  7.338E-30  1.060E-18
5.395E+03  7.614E-30  1.090E-18
5.346E+03  7.900E-30  1.120E-18
5.297E+03  8.198E-30  1.152E-18
5.248E+03  8.506E-30  1.184E-18
5.200E+03  8.827E-30  1.218E-18
5.152E+03  9.160E-30  1.252E-18
5.105E+03  9.506E-30  1.287E-18
5.058E+03  9.864E-30  1.324E-18
5.012E+03  1.024E-29  1.361E-18
4.966E+03  1.062E-29  1.399E-18
4.920E+03  1.103E-29  1.439E-18
4.875E+03  1.144E-29  1.480E-18
4.831E+03  1.187E-29  1.522E-18
4.786E+03  1.232E-29  1.565E-18
4.742E+03  1.279E-29  1.609E-18
4.699E+03  1.328E-29  1.655E-18
4.656E+03  1.378E-29  1.702E-18
4.613E+03  1.430E-29  1.750E-18
4.571E+03  1.485E-29  1.800E-18
4.529E+03  1.541E-29  1.851E-18
4.487E+03  1.600E-29  1.904E-18
4.446E+03  1.661E-29  1.959E-18
4.406E+03  1.724E-29  2.014E-18
4.365E+03  1.790E-29  2.072E-18
4.325E+03  1.858E-29  2.131E-18
4.285E+03  1.929E-29  2.192E-18
4.246E+03  2.002E-29  2.255E-18
4.207E+03  2.079E-29  2.320E-18
4.169E+03  2.158E-29  2.387E-18
4.130E+03  2.241E-29  2.455E-18
4.093E+03  2.327E-29  2.526E-18
4.055E+03  2.416E-29  2.598E-18
4.018E+03  2.508E-29  2.673E-18
3.981E+03  2.604E-29  2.750E-18
3.945E+03  2.704E-29  2.829E-18
3.908E+03  2.808E-29  2.911E-18
3.873E+03  2.915E-29  2.995E-18
3.837E+03  3.027E-29  3.081E-18
3.802E+03  3.143E-29  3.170E-18
3.767E+03  3.264E-29  3.262E-18
3.733E+03  3.390E-29  3.356E-18
3.698E+03  3.520E-29  3.453E-18
3.664E+03  3.656E-29  3.554E-18
3.631E+03  3.797E-29  3.657E-18
3.597E+03  3.943E-29  3.763E-18
3.565E+03  4.095E-29  3.872E-18
3.532E+03  4.254E-29  3.985E-18
3.499E+03  4.418E-29  4.101E-18
3.467E+03  4.589E-29  4.221E-18
3.436E+03  4.767E-29  4.344E-18
3.404E+03  4.951E-29  4.471E-18
3.373E+03  5.143E-29  4.602E-18
3.342E+03  5.343E-29  4.736E-18
3.311E+03  5.550E-29  4.875E-18
3.281E+03  5.766E-29  5.018E-18
3.251E+03  5.990E-29  5.165E-18
3.221E+03  6.223E-29  5.317E-18
3.192E+03  6.465E-29  5.473E-18
3.162E+03  6.716E-29  5.634E-18
3.133E+03  6.978E-29  5.800E-18
3.105E+03  7.250E-29  5.971E-18
3.076E+03  7.533E-29  6.147E-18
3.048E+03  7.827E-29  6.328E-18
3.020E+03  8.133E-29  6.515E-18
2.992E+03  8.450E-29  6.707E-18
2.965E+03  8.780E-29  6.905E-18
2.938E+03  9.122E-29  7.108E-18
2.911E+03  9.478E-29  7.318E-18
2.884E+03  9.848E-29  7.534E-18
2.858E+03  1.023E-28  7.757E-18
2.831E+03  1.063E-28  7.986E-18
2.805E+03  1.105E-28  8.223E-18
2.780E+03  1.148E-28  8.466E-18
2.754E+03  1.193E-28  8.718E-18
2.729E+03  1.240E-28  8.976E-18
2.704E+03  1.289E-28  9.243E-18
2.679E+03  1.339E-28  9.518E-18
2.655E+03  1.392E-28  9.801E-18
2.630E+03  1.447E-28  1.009E-17
2.606E+03  1.504E-28  1.039E-17
2.582E+03  1.563E-28  1.070E-17
2.559E+03  1.624E-28  1.102E-17
2.535E+03  1.688E-28  1.135E-17
2.512E+03  1.755E-28  1.169E-17
2.489E+03  1.824E-28  1.204E-17
2.466E+03  1.896E-28  1.240E-17
2.443E+03  1.971E-28  1.278E-17
2.421E+03  2.049E-28  1.316E-17
2.399E+03  2.130E-28  1.355E-17
2.377E+03  2.214E-28  1.396E-17
2.355E+03  2.302E-28  1.438E-17
2.333E+03  2.393E-28  1.481E-17
2.312E+03  2.488E-28  1.526E-17
2.291E+03  2.587E-28  1.572E-17
2.270E+03  2.689E-28  1.619E-17
2.249E+03  2.796E-28  1.668E-17
2.228E+03  2.907E-28  1.718E-17
2.208E+03  3.022E-28  1.770E-17
2.188E+03  3.143E-28  1.824E-17
2.168E+03  3.267E-28  1.879E-17
2.148E+03  3.397E-28  1.936E-17
2.128E+03  3.533E-28  1.994E-17
2.109E+03  3.673E-28  2.055E-17
2.089E+03  3.820E-28  2.117E-17
2.070E+03  3.972E-28  2.181E-17
2.051E+03  4.130E-28  2.247E-17
2.032E+03  4.295E-28  2.315E-17
2.014E+03  4.466E-28  2.385E-17
1.995E+03  4.644E-28  2.458E-17
1.977E+03  4.829E-28  2.532E-17
1.959E+03  5.022E-28  2.609E-17
1.941E+03  5.222E-28  2.689E-17
1.923E+03  5.431E-28  2.770E-17
1.905E+03  5.648E-28  2.855E-17
1.888E+03  5.873E-28  2.941E-17
1.871E+03  6.108E-28  3.031E-17
1.854E+03  6.352E-28  3.123E-17
1.837E+03  6.606E-28  3.218E-17
1.820E+03  6.871E-28  3.316E-17
1.803E+03  7.146E-28  3.418E-17
1.786E+03  7.432E-28  3.522E-17
1.770E+03  7.729E-28  3.629E-17
1.754E+03  8.039E-28  3.740E-17
1.738E+03  8.361E-28  3.854E-17
1.722E+03  8.696E-28  3.972E-17
1.706E+03  9.045E-28  4.093E-17
1.690E+03  9.407E-28  4.218E-17
1.675E+03  9.784E-28  4.347E-17
1.660E+03  1.018E-27  4.480E-17
1.644E+03  1.058E-27  4.617E-17
1.629E+03  1.101E-27  4.758E-17
1.614E+03  1.145E-27  4.904E-17
1.600E+03  1.191E-27  5.054E-17
1.585E+03  1.239E-27  5.208E-17
1.570E+03  1.289E-27  5.368E-17
1.556E+03  1.340E-27  5.532E-17
1.542E+03  1.394E-27  5.701E-17
1.528E+03  1.450E-27  5.875E-17
1.514E+03  1.508E-27  6.055E-17
1.500E+03  1.569E-27  6.240E-17
1.486E+03  1.632E-27  6.432E-17
1.472E+03  1.697E-27  6.629E-17
1.459E+03  1.765E-27  6.832E-17
1.445E+03  1.836E-27  7.041E-17
1.432E+03  1.910E-27  7.257E-17
1.419E+03  1.987E-27  7.479E-17
1.406E+03  2.067E-27  7.709E-17
1.393E+03  2.150E-27  7.945E-17
1.380E+03  2.236E-27  8.188E-17
1.368E+03  2.326E-27  8.439E-17
1.355E+03  2.420E-27  8.698E-17
1.343E+03  2.517E-27  8.964E-17
1.330E+03  2.618E-27  9.239E-17
1.318E+03  2.723E-27  9.522E-17
1.306E+03  2.832E-27  9.814E-17
1.294E+03  2.946E-27  1.011E-16
1.282E+03  3.065E-27  1.042E-16
1.271E+03  3.188E-27  1.074E-16
1.259E+03  3.316E-27  1.107E-16
1.247E+03  3.449E-27  1.141E-16
1.236E+03  3.587E-27  1.176E-16
1.225E+03  3.731E-27  1.212E-16
1.213E+03  3.880E-27  1.249E-16
1.202E+03  4.036E-27  1.287E-16
1.191E+03  4.198E-27  1.326E-16
1.180E+03  4.366E-27  1.367E-16
1.169E+03  4.541E-27  1.409E-16
1.159E+03  4.723E-27  1.452E-16
1.148E+03  4.912E-27  1.496E-16
1.138E+03  5.108E-27  1.542E-16
1.127E+03  5.313E-27  1.589E-16
1.117E+03  5.525E-27  1.637E-16
1.107E+03  5.746E-27  1.687E-16
1.096E+03  5.976E-27  1.738E-16
1.086E+03  6.215E-27  1.791E-16
1.076E+03  6.463E-27  1.845E-16
1.067E+03  6.721E-27  1.901E-16
1.057E+03  6.989E-27  1.959E-16
1.047E+03  7.267E-27  2.019E-16
1.038E+03  7.557E-27  2.080E-16
1.028E+03  7.858E-27  2.143E-16
1.019E+03  8.171E-27  2.208E-16
1.009E+03  8.496E-27  2.274E-16
1.000E+03  8.834E-27  2.343E-16
9.908E+02  9.185E-27  2.414E-16
9.817E+02  9.551E-27  2.487E-16
9.727E+02  9.930E-27  2.562E-16
9.638E+02  1.033E-26  2.640E-16
9.550E+02  1.074E-26  2.719E-16
9.462E+02  1.116E-26  2.801E-16
9.376E+02  1.160E-26  2.886E-16
9.290E+02  1.206E-26  2.973E-16
9.204E+02  1.254E-26  3.062E-16
9.120E+02  1.304E-26  3.154E-16
9.036E+02  1.355E-26  3.249E-16
8.954E+02  1.409E-26  3.346E-16
8.872E+02  1.465E-26  3.447E-16
8.790E+02  1.522E-26  3.550E-16
8.710E+02  1.582E-26  3.656E-16
8.630E+02  1.645E-26  3.765E-16
8.551E+02  1.709E-26  3.877E-16
8.472E+02  1.777E-26  3.993E-16
8.395E+02  1.846E-26  4.111E-16
8.318E+02  1.919E-26  4.233E-16
8.241E+02  1.994E-26  4.359E-16
8.166E+02  2.072E-26  4.488E-16
8.091E+02  2.153E-26  4.621E-16
8.017E+02  2.237E-26  4.757E-16
7.943E+02  2.324E-26  4.897E-16
7.870E+02  2.415E-26  5.042E-16
7.798E+02  2.509E-26  5.190E-16
7.727E+02  2.607E-26  5.343E-16
7.656E+02  2.708E-26  5.500E-16
7.586E+02  2.813E-26  5.661E-16
7.516E+02  2.923E-26  5.827E-16
7.447E+02  3.036E-26  5.998E-16
7.379E+02  3.154E-26  6.174E-16
7.311E+02  3.277E-26  6.354E-16
7.244E+02  3.404E-26  6.541E-16
7.178E+02  3.536E-26  6.732E-16
7.112E+02  3.673E-26  6.929E-16
7.047E+02  3.815E-26  7.132E-16
6.982E+02  3.963E-26  7.340E-16
6.918E+02  4.116E-26  7.554E-16
6.855E+02  4.276E-26  7.774E-16
6.792E+02  4.441E-26  8.001E-16
6.730E+02  4.612E-26  8.233E-16
6.668E+02  4.790E-26  8.472E-16
6.607E+02  4.974E-26  8.718E-16
6.546E+02  5.166E-26  8.971E-16
6.486E+02  5.366E-26  9.232E-16
6.427E+02  5.573E-26  9.501E-16
6.368E+02  5.788E-26  9.777E-16
6.310E+02  6.011E-26  1.006E-15
6.252E+02  6.243E-26  1.035E-15
6.194E+02  6.484E-26  1.065E-15
6.138E+02  6.734E-26  1.096E-15
6.081E+02  6.993E-26  1.128E-15
6.026E+02  7.262E-26  1.161E-15
5.970E+02  7.542E-26  1.194E-15
5.916E+02  7.832E-26  1.229E-15
5.861E+02  8.133E-26  1.264E-15
5.808E+02  8.445E-26  1.301E-15
5.754E+02  8.769E-26  1.339E-15
5.702E+02  9.106E-26  1.377E-15
5.649E+02  9.455E-26  1.417E-15
5.598E+02  9.818E-26  1.458E-15
5.546E+02  1.019E-25  1.500E-15
5.495E+02  1.058E-25  1.543E-15
5.445E+02  1.099E-25  1.587E-15
5.395E+02  1.141E-25  1.633E-15
5.346E+02  1.185E-25  1.680E-15
5.297E+02  1.230E-25  1.728E-15
5.248E+02  1.277E-25  1.777E-15
5.200E+02  1.325E-25  1.828E-15
5.152E+02  1.376E-25  1.881E-15
5.105E+02  1.428E-25  1.934E-15
5.058E+02  1.483E-25  1.990E-15
5.012E+02  1.539E-25  2.046E-15
4.966E+02  1.598E-25  2.105E-15
4.920E+02  1.658E-25  2.164E-15
4.875E+02  1.721E-25  2.226E-15
4.831E+02  1.786E-25  2.289E-15
4.786E+02  1.854E-25  2.354E-15
4.742E+02  1.924E-25  2.421E-15
4.699E+02  1.997E-25  2.489E-15
4.656E+02  2.072E-25  2.559E-15
4.613E+02  2.150E-25  2.631E-15
4.571E+02  2.231E-25  2.706E-15
4.529E+02  2.315E-25  2.782E-15
4.487E+02  2.403E-25  2.860E-15
4.446E+02  2.493E-25  2.940E-15
4.406E+02  2.586E-25  3.022E-15
4.365E+02  2.683E-25  3.107E-15
4.325E+02  2.783E-25  3.193E-15
4.285E+02  2.887E-25  3.282E-15
4.246E+02  2.995E-25  3.374E-15
4.207E+02  3.107E-25  3.467E-15
4.169E+02  3.222E-25  3.563E-15
4.130E+02  3.342E-25  3.662E-15
4.093E+02  3.466E-25  3.763E-15
4.055E+02  3.595E-25  3.867E-15
4.018E+02  3.728E-25  3.973E-15
3.981E+02  3.866E-25  4.083E-15
3.945E+02  4.009E-25  4.195E-15
3.908E+02  4.157E-25  4.310E-15
3.873E+02  4.310E-25  4.428E-15
3.837E+02  4.469E-25  4.549E-15
3.802E+02  4.633E-25  4.673E-15
3.767E+02  4.803E-25  4.800E-15
3.733E+02  4.979E-25  4.930E-15
3.698E+02  5.161E-25  5.063E-15
3.664E+02  5.350E-25  5.200E-15
3.631E+02  5.545E-25  5.340E-15
3.597E+02  5.747E-25  5.484E-15
3.565E+02  5.955E-25  5.631E-15
3.532E+02  6.171E-25  5.782E-15
3.499E+02  6.395E-25  5.936E-15
3.467E+02  6.626E-25  6.094E-15
3.436E+02  6.864E-25  6.256E-15
3.404E+02  7.111E-25  6.421E-15
3.373E+02  7.367E-25  6.591E-15
3.342E+02  7.631E-25  6.764E-15
3.311E+02  7.904E-25  6.942E-15
3.281E+02  8.185E-25  7.124E-15
3.251E+02  8.477E-25  7.310E-15
3.221E+02  8.778E-25  7.500E-15
3.192E+02  9.089E-25  7.695E-15
3.162E+02  9.410E-25  7.894E-15
3.133E+02  9.742E-25  8.097E-15
3.105E+02  1.008E-24  8.305E-15
3.076E+02  1.044E-24  8.518E-15
3.048E+02  1.080E-24  8.735E-15
3.020E+02  1.118E-24  8.957E-15
2.992E+02  1.157E-24  9.184E-15
2.965E+02  1.197E-24  9.416E-15
2.938E+02  1.239E-24  9.653E-15
2.911E+02  1.282E-24  9.895E-15
2.884E+02  1.326E-24  1.014E-14
2.858E+02  1.371E-24  1.039E-14
2.831E+02  1.418E-24  1.065E-14
2.805E+02  1.467E-24  1.091E-14
2.780E+02  1.517E-24  1.118E-14
2.754E+02  1.568E-24  1.146E-14
2.729E+02  1.621E-24  1.174E-14
2.704E+02  1.676E-24  1.202E-14
2.679E+02  1.733E-24  1.231E-14
2.655E+02  1.791E-24  1.261E-14
2.630E+02  1.851E-24  1.292E-14
2.606E+02  1.913E-24  1.323E-14
2.582E+02  1.977E-24  1.354E-14
2.559E+02  2.042E-24  1.386E-14
2.535E+02  2.109E-24  1.418E-14
2.512E+02  2.178E-24  1.451E-14
2.489E+02  2.248E-24  1.484E-14
2.466E+02  2.318E-24  1.516E-14
2.443E+02  2.390E-24  1.549E-14
2.421E+02  2.463E-24  1.582E-14
2.399E+02  2.538E-24  1.615E-14
2.377E+02  2.614E-24  1.648E-14
2.355E+02  2.691E-24  1.681E-14
2.333E+02  2.771E-24  1.715E-14
2.312E+02  2.852E-24  1.749E-14
2.291E+02  2.935E-24  1.784E-14
2.270E+02  3.020E-24  1.819E-14
2.249E+02  3.108E-24  1.854E-14
2.228E+02  3.197E-24  1.890E-14
2.208E+02  3.288E-24  1.926E-14
2.188E+02  3.382E-24  1.963E-14
2.168E+02  3.478E-24  2.000E-14
2.148E+02  3.575E-24  2.037E-14
2.128E+02  3.675E-24  2.075E-14
2.109E+02  3.777E-24  2.113E-14
2.089E+02  3.882E-24  2.151E-14
2.070E+02  3.988E-24  2.190E-14
2.051E+02  4.097E-24  2.229E-14
2.032E+02  4.208E-24  2.269E-14
2.014E+02  4.322E-24  2.309E-14
1.995E+02  4.438E-24  2.349E-14
1.977E+02  4.556E-24  2.389E-14
1.959E+02  4.676E-24  2.430E-14
1.941E+02  4.799E-24  2.471E-14
1.923E+02  4.925E-24  2.512E-14
1.905E+02  5.053E-24  2.554E-14
1.888E+02  5.184E-24  2.596E-14
1.871E+02  5.317E-24  2.638E-14
1.854E+02  5.453E-24  2.681E-14
1.837E+02  5.591E-24  2.724E-14
1.820E+02  5.732E-24  2.767E-14
1.803E+02  5.876E-24  2.810E-14
1.786E+02  6.023E-24  2.854E-14
1.770E+02  6.173E-24  2.898E-14
1.754E+02  6.325E-24  2.943E-14
1.738E+02  6.481E-24  2.987E-14
1.722E+02  6.639E-24  3.032E-14
1.706E+02  6.801E-24  3.078E-14
1.690E+02  6.966E-24  3.123E-14
1.675E+02  7.134E-24  3.170E-14
1.660E+02  7.306E-24  3.216E-14
1.644E+02  7.481E-24  3.263E-14
1.629E+02  7.660E-24  3.311E-14
1.614E+02  7.843E-24  3.358E-14
1.600E+02  8.029E-24  3.407E-14
1.585E+02  8.220E-24  3.456E-14
1.570E+02  8.416E-24  3.506E-14
1.556E+02  8.615E-24  3.556E-14
1.542E+02  8.820E-24  3.607E-14
1.528E+02  9.029E-24  3.659E-14
1.514E+02  9.244E-24  3.711E-14
1.500E+02  9.462E-24  3.764E-14
1.486E+02  9.686E-24  3.818E-14
1.472E+02  9.913E-24  3.871E-14
1.459E+02  1.014E-23  3.925E-14
1.445E+02  1.037E-23  3.977E-14
1.432E+02  1.060E-23  4.027E-14
1.419E+02  1.082E-23  4.074E-14
1.406E+02  1.104E-23  4.117E-14
1.393E+02  1.124E-23  4.153E-14
1.380E+02  1.143E-23  4.184E-14
1.368E+02  1.160E-23  4.209E-14
1.355E+02  1.177E-23  4.230E-14
1.343E+02  1.192E-23  4.246E-14
1.330E+02  1.207E-23  4.260E-14
1.318E+02  1.222E-23  4.274E-14
1.306E+02  1.237E-23  4.286E-14
1.294E+02  1.252E-23  4.299E-14
1.282E+02  1.268E-23  4.313E-14
1.271E+02  1.284E-23  4.326E-14
1.259E+02  1.300E-23  4.341E-14
1.247E+02  1.316E-23  4.356E-14
1.236E+02  1.333E-23  4.371E-14
1.225E+02  1.351E-23  4.388E-14
1.213E+02  1.368E-23  4.404E-14
1.202E+02  1.386E-23  4.421E-14
1.191E+02  1.405E-23  4.438E-14
1.180E+02  1.423E-23  4.455E-14
1.169E+02  1.442E-23  4.472E-14
1.159E+02  1.460E-23  4.489E-14
1.148E+02  1.479E-23  4.506E-14
1.138E+02  1.499E-23  4.523E-14
1.127E+02  1.518E-23  4.539E-14
1.117E+02  1.538E-23  4.556E-14
1.107E+02  1.558E-23  4.573E-14
1.096E+02  1.578E-23  4.589E-14
1.086E+02  1.598E-23  4.605E-14
1.076E+02  1.618E-23  4.620E-14
1.067E+02  1.638E-23  4.636E-14
1.057E+02  1.659E-23  4.650E-14
1.047E+02  1.679E-23  4.665E-14
1.038E+02  1.700E-23  4.679E-14
1.028E+02  1.721E-23  4.692E-14
1.019E+02  1.741E-23  4.704E-14
1.009E+02  1.762E-23  4.716E-14
1.000E+02  1.782E-23  4.727E-14
9.908E+01  1.803E-23  4.738E-14
9.817E+01  1.823E-23  4.748E-14
9.727E+01  1.843E-23  4.757E-14
9.638E+01  1.864E-23  4.765E-14
9.550E+01  1.884E-23  4.773E-14
9.462E+01  1.904E-23  4.780E-14
9.376E+01  1.924E-23  4.786E-14
9.290E+01  1.944E-23  4.791E-14
9.204E+01  1.964E-23  4.796E-14
9.120E+01  1.984E-23  4.800E-14
9.036E+01  2.004E-23  4.803E-14
8.954E+01  2.023E-23  4.806E-14
8.872E+01  2.043E-23  4.808E-14
8.790E+01  2.063E-23  4.809E-14
8.710E+01  2.082E-23  4.810E-14
8.630E+01  2.101E-23  4.810E-14
8.551E+01  2.121E-23  4.810E-14
8.472E+01  2.140E-23  4.809E-14
8.395E+01  2.159E-23  4.807E-14
8.318E+01  2.178E-23  4.805E-14
8.241E+01  2.196E-23  4.802E-14
8.166E+01  2.215E-23  4.799E-14
8.091E+01  2.234E-23  4.795E-14
8.017E+01  2.253E-23  4.790E-14
7.943E+01  2.271E-23  4.785E-14
7.870E+01  2.289E-23  4.779E-14
7.798E+01  2.307E-23  4.773E-14
7.727E+01  2.325E-23  4.766E-14
7.656E+01  2.343E-23  4.759E-14
7.586E+01  2.361E-23  4.751E-14
7.516E+01  2.379E-23  4.743E-14
7.447E+01  2.396E-23  4.734E-14
7.379E+01  2.414E-23  4.724E-14
7.311E+01  2.431E-23  4.714E-14
7.244E+01  2.448E-23  4.704E-14
7.178E+01  2.465E-23  4.693E-14
7.112E+01  2.481E-23  4.681E-14
7.047E+01  2.498E-23  4.670E-14
6.982E+01  2.515E-23  4.659E-14
6.918E+01  2.532E-23  4.647E-14
6.855E+01  2.549E-23  4.634E-14
6.792E+01  2.565E-23  4.621E-14
6.730E+01  2.581E-23  4.608E-14
6.668E+01  2.598E-23  4.595E-14
6.607E+01  2.614E-23  4.582E-14
6.546E+01  2.631E-23  4.568E-14
6.486E+01  2.647E-23  4.554E-14
6.427E+01  2.663E-23  4.540E-14
6.368E+01  2.680E-23  4.526E-14
6.310E+01  2.696E-23  4.512E-14
6.252E+01  2.712E-23  4.498E-14
6.194E+01  2.729E-23  4.484E-14
6.138E+01  2.746E-23  4.470E-14
6.081E+01  2.762E-23  4.456E-14
6.026E+01  2.779E-23  4.442E-14
5.970E+01  2.796E-23  4.427E-14
5.916E+01  2.812E-23  4.413E-14
5.861E+01  2.829E-23  4.399E-14
5.808E+01  2.846E-23  4.384E-14
5.754E+01  2.863E-23  4.370E-14
5.702E+01  2.880E-23  4.356E-14
5.649E+01  2.898E-23  4.343E-14
5.598E+01  2.916E-23  4.329E-14
5.546E+01  2.934E-23  4.316E-14
5.495E+01  2.952E-23  4.303E-14
5.445E+01  2.970E-23  4.290E-14
5.395E+01  2.989E-23  4.278E-14
5.346E+01  3.008E-23  4.266E-14
5.297E+01  3.028E-23  4.254E-14
5.248E+01  3.048E-23  4.242E-14
5.200E+01  3.068E-23  4.231E-14
5.152E+01  3.088E-23  4.220E-14
5.105E+01  3.109E-23  4.210E-14
5.058E+01  3.130E-23  4.199E-14
5.012E+01  3.151E-23  4.189E-14
4.966E+01  3.173E-23  4.180E-14
