Dust emission from Draine & Li (2007): ApJ 657, 810-837
================================================================
         1 = grain model
 4.000E-08 4.000E-01 0.000E+00 = a_01 (cm) , sigma_1 , b_C1/0.92
 2.500E-07 4.000E-01 0.000E+00 = a_02 (cm) , sigma_2 , b_C2/0.92
 1.000E+00 1.000E+03 2.000E+00 = Umin , Umax, beta (dN/dU propto U^{-beta})
 6.915E+00 = <U> 
     mmp83 = radfield
 3.089E-23 = power/H (erg s-1)
 band   nu*P_nu(band) j_nu(band)
 (um)   (erg s-1 H-1)(Jy cm2 sr-1 H-1)
1.270E+00  1.158E-26  3.903E-19 COBE-DIRBE
2.220E+00  1.373E-26  8.084E-19 COBE-DIRBE
3.530E+00  8.421E-26  7.885E-18 COBE-DIRBE
4.880E+00  3.826E-26  4.952E-18 COBE-DIRBE
1.229E+01  9.384E-25  3.059E-16 COBE-DIRBE
2.079E+01  2.004E-24  1.105E-15 COBE-DIRBE
5.599E+01  1.898E-23  2.819E-14 COBE-DIRBE
9.770E+01  1.552E-23  4.021E-14 COBE-DIRBE
1.479E+02  8.979E-24  3.522E-14 COBE-DIRBE
2.479E+02  2.455E-24  1.614E-14 COBE-DIRBE
1.200E+01  8.157E-25  2.597E-16 IRAS
2.500E+01  2.856E-24  1.894E-15 IRAS
6.000E+01  1.886E-23  3.001E-14 IRAS
1.000E+02  1.516E-23  4.020E-14 IRAS
3.550E+00  9.795E-26  9.223E-18 SST-IRAC
4.493E+00  2.669E-26  3.181E-18 SST-IRAC
5.731E+00  2.441E-25  3.710E-17 SST-IRAC
7.872E+00  7.657E-25  1.599E-16 SST-IRAC
2.368E+01  2.411E-24  1.514E-15 SST-MIPS
7.142E+01  1.730E-23  3.277E-14 SST-MIPS
1.559E+02  7.591E-24  3.139E-14 SST-MIPS
1.600E+01  1.299E-24  5.513E-16 SST-IRSPU
2.200E+01  2.314E-24  1.350E-15 SST-IRSPU











lambda    nu*dP/dnu     j_nu
 (um)   (erg s-1 H-1)(Jy cm2 sr-1 H-1)
1.000E+04  6.589E-31  1.748E-19
9.908E+03  6.831E-31  1.795E-19
9.817E+03  7.081E-31  1.844E-19
9.727E+03  7.341E-31  1.894E-19
9.638E+03  7.610E-31  1.946E-19
9.550E+03  7.890E-31  1.999E-19
9.462E+03  8.179E-31  2.053E-19
9.376E+03  8.479E-31  2.109E-19
9.290E+03  8.790E-31  2.166E-19
9.204E+03  9.113E-31  2.225E-19
9.120E+03  9.447E-31  2.286E-19
9.036E+03  9.794E-31  2.348E-19
8.954E+03  1.015E-30  2.411E-19
8.872E+03  1.052E-30  2.476E-19
8.790E+03  1.091E-30  2.543E-19
8.710E+03  1.131E-30  2.612E-19
8.630E+03  1.172E-30  2.683E-19
8.551E+03  1.215E-30  2.756E-19
8.472E+03  1.259E-30  2.830E-19
8.395E+03  1.306E-30  2.907E-19
8.318E+03  1.353E-30  2.986E-19
8.241E+03  1.403E-30  3.067E-19
8.166E+03  1.455E-30  3.151E-19
8.091E+03  1.508E-30  3.236E-19
8.017E+03  1.563E-30  3.325E-19
7.943E+03  1.621E-30  3.415E-19
7.870E+03  1.681E-30  3.509E-19
7.798E+03  1.742E-30  3.604E-19
7.727E+03  1.807E-30  3.703E-19
7.656E+03  1.873E-30  3.804E-19
7.586E+03  1.942E-30  3.908E-19
7.516E+03  2.014E-30  4.015E-19
7.447E+03  2.088E-30  4.126E-19
7.379E+03  2.166E-30  4.239E-19
7.311E+03  2.246E-30  4.355E-19
7.244E+03  2.329E-30  4.475E-19
7.178E+03  2.415E-30  4.598E-19
7.112E+03  2.504E-30  4.725E-19
7.047E+03  2.597E-30  4.855E-19
6.982E+03  2.693E-30  4.988E-19
6.918E+03  2.793E-30  5.126E-19
6.855E+03  2.897E-30  5.267E-19
6.792E+03  3.004E-30  5.412E-19
6.730E+03  3.115E-30  5.561E-19
6.668E+03  3.231E-30  5.715E-19
6.607E+03  3.351E-30  5.873E-19
6.546E+03  3.475E-30  6.035E-19
6.486E+03  3.605E-30  6.202E-19
6.427E+03  3.739E-30  6.374E-19
6.368E+03  3.878E-30  6.551E-19
6.310E+03  4.023E-30  6.732E-19
6.252E+03  4.173E-30  6.919E-19
6.194E+03  4.328E-30  7.112E-19
6.138E+03  4.490E-30  7.309E-19
6.081E+03  4.657E-30  7.513E-19
6.026E+03  4.831E-30  7.722E-19
5.970E+03  5.012E-30  7.938E-19
5.916E+03  5.200E-30  8.159E-19
5.861E+03  5.394E-30  8.387E-19
5.808E+03  5.596E-30  8.621E-19
5.754E+03  5.806E-30  8.862E-19
5.702E+03  6.024E-30  9.111E-19
5.649E+03  6.250E-30  9.366E-19
5.598E+03  6.485E-30  9.628E-19
5.546E+03  6.728E-30  9.898E-19
5.495E+03  6.981E-30  1.018E-18
5.445E+03  7.244E-30  1.046E-18
5.395E+03  7.516E-30  1.076E-18
5.346E+03  7.799E-30  1.106E-18
5.297E+03  8.093E-30  1.137E-18
5.248E+03  8.398E-30  1.169E-18
5.200E+03  8.715E-30  1.202E-18
5.152E+03  9.043E-30  1.236E-18
5.105E+03  9.385E-30  1.271E-18
5.058E+03  9.739E-30  1.307E-18
5.012E+03  1.011E-29  1.344E-18
4.966E+03  1.049E-29  1.382E-18
4.920E+03  1.089E-29  1.421E-18
4.875E+03  1.130E-29  1.461E-18
4.831E+03  1.173E-29  1.502E-18
4.786E+03  1.217E-29  1.545E-18
4.742E+03  1.263E-29  1.589E-18
4.699E+03  1.311E-29  1.634E-18
4.656E+03  1.361E-29  1.680E-18
4.613E+03  1.412E-29  1.728E-18
4.571E+03  1.466E-29  1.777E-18
4.529E+03  1.522E-29  1.828E-18
4.487E+03  1.580E-29  1.880E-18
4.446E+03  1.640E-29  1.934E-18
4.406E+03  1.702E-29  1.989E-18
4.365E+03  1.767E-29  2.046E-18
4.325E+03  1.834E-29  2.105E-18
4.285E+03  1.904E-29  2.165E-18
4.246E+03  1.977E-29  2.227E-18
4.207E+03  2.053E-29  2.291E-18
4.169E+03  2.131E-29  2.357E-18
4.130E+03  2.213E-29  2.424E-18
4.093E+03  2.297E-29  2.494E-18
4.055E+03  2.385E-29  2.566E-18
4.018E+03  2.477E-29  2.640E-18
3.981E+03  2.572E-29  2.716E-18
3.945E+03  2.670E-29  2.794E-18
3.908E+03  2.772E-29  2.874E-18
3.873E+03  2.879E-29  2.957E-18
3.837E+03  2.989E-29  3.042E-18
3.802E+03  3.104E-29  3.130E-18
3.767E+03  3.223E-29  3.221E-18
3.733E+03  3.347E-29  3.314E-18
3.698E+03  3.476E-29  3.410E-18
3.664E+03  3.610E-29  3.509E-18
3.631E+03  3.749E-29  3.610E-18
3.597E+03  3.893E-29  3.715E-18
3.565E+03  4.043E-29  3.823E-18
3.532E+03  4.200E-29  3.934E-18
3.499E+03  4.362E-29  4.049E-18
3.467E+03  4.530E-29  4.167E-18
3.436E+03  4.706E-29  4.288E-18
3.404E+03  4.888E-29  4.414E-18
3.373E+03  5.077E-29  4.542E-18
3.342E+03  5.274E-29  4.675E-18
3.311E+03  5.479E-29  4.812E-18
3.281E+03  5.691E-29  4.953E-18
3.251E+03  5.912E-29  5.098E-18
3.221E+03  6.142E-29  5.248E-18
3.192E+03  6.381E-29  5.402E-18
3.162E+03  6.629E-29  5.560E-18
3.133E+03  6.887E-29  5.724E-18
3.105E+03  7.155E-29  5.892E-18
3.076E+03  7.434E-29  6.066E-18
3.048E+03  7.724E-29  6.245E-18
3.020E+03  8.025E-29  6.429E-18
2.992E+03  8.338E-29  6.618E-18
2.965E+03  8.663E-29  6.813E-18
2.938E+03  9.001E-29  7.014E-18
2.911E+03  9.352E-29  7.220E-18
2.884E+03  9.717E-29  7.433E-18
2.858E+03  1.010E-28  7.653E-18
2.831E+03  1.049E-28  7.879E-18
2.805E+03  1.090E-28  8.112E-18
2.780E+03  1.133E-28  8.352E-18
2.754E+03  1.177E-28  8.599E-18
2.729E+03  1.223E-28  8.854E-18
2.704E+03  1.271E-28  9.117E-18
2.679E+03  1.321E-28  9.388E-18
2.655E+03  1.373E-28  9.667E-18
2.630E+03  1.427E-28  9.954E-18
2.606E+03  1.483E-28  1.025E-17
2.582E+03  1.541E-28  1.056E-17
2.559E+03  1.602E-28  1.087E-17
2.535E+03  1.665E-28  1.119E-17
2.512E+03  1.730E-28  1.153E-17
2.489E+03  1.798E-28  1.187E-17
2.466E+03  1.869E-28  1.223E-17
2.443E+03  1.943E-28  1.259E-17
2.421E+03  2.020E-28  1.297E-17
2.399E+03  2.100E-28  1.336E-17
2.377E+03  2.182E-28  1.376E-17
2.355E+03  2.269E-28  1.417E-17
2.333E+03  2.358E-28  1.460E-17
2.312E+03  2.452E-28  1.504E-17
2.291E+03  2.549E-28  1.549E-17
2.270E+03  2.650E-28  1.595E-17
2.249E+03  2.755E-28  1.643E-17
2.228E+03  2.864E-28  1.693E-17
2.208E+03  2.978E-28  1.744E-17
2.188E+03  3.096E-28  1.796E-17
2.168E+03  3.219E-28  1.851E-17
2.148E+03  3.346E-28  1.906E-17
2.128E+03  3.479E-28  1.964E-17
2.109E+03  3.617E-28  2.023E-17
2.089E+03  3.761E-28  2.085E-17
2.070E+03  3.911E-28  2.148E-17
2.051E+03  4.066E-28  2.212E-17
2.032E+03  4.228E-28  2.279E-17
2.014E+03  4.397E-28  2.348E-17
1.995E+03  4.572E-28  2.420E-17
1.977E+03  4.754E-28  2.493E-17
1.959E+03  4.943E-28  2.568E-17
1.941E+03  5.140E-28  2.646E-17
1.923E+03  5.345E-28  2.726E-17
1.905E+03  5.558E-28  2.809E-17
1.888E+03  5.779E-28  2.894E-17
1.871E+03  6.010E-28  2.982E-17
1.854E+03  6.250E-28  3.073E-17
1.837E+03  6.499E-28  3.166E-17
1.820E+03  6.759E-28  3.262E-17
1.803E+03  7.029E-28  3.362E-17
1.786E+03  7.310E-28  3.464E-17
1.770E+03  7.602E-28  3.569E-17
1.754E+03  7.906E-28  3.678E-17
1.738E+03  8.222E-28  3.790E-17
1.722E+03  8.550E-28  3.905E-17
1.706E+03  8.892E-28  4.024E-17
1.690E+03  9.248E-28  4.147E-17
1.675E+03  9.618E-28  4.273E-17
1.660E+03  1.000E-27  4.404E-17
1.644E+03  1.040E-27  4.538E-17
1.629E+03  1.082E-27  4.676E-17
1.614E+03  1.125E-27  4.819E-17
1.600E+03  1.170E-27  4.966E-17
1.585E+03  1.217E-27  5.117E-17
1.570E+03  1.266E-27  5.273E-17
1.556E+03  1.317E-27  5.434E-17
1.542E+03  1.369E-27  5.600E-17
1.528E+03  1.424E-27  5.771E-17
1.514E+03  1.481E-27  5.947E-17
1.500E+03  1.541E-27  6.129E-17
1.486E+03  1.602E-27  6.316E-17
1.472E+03  1.667E-27  6.509E-17
1.459E+03  1.733E-27  6.708E-17
1.445E+03  1.803E-27  6.913E-17
1.432E+03  1.875E-27  7.124E-17
1.419E+03  1.950E-27  7.342E-17
1.406E+03  2.029E-27  7.566E-17
1.393E+03  2.110E-27  7.797E-17
1.380E+03  2.195E-27  8.036E-17
1.368E+03  2.283E-27  8.281E-17
1.355E+03  2.374E-27  8.534E-17
1.343E+03  2.469E-27  8.795E-17
1.330E+03  2.568E-27  9.064E-17
1.318E+03  2.671E-27  9.341E-17
1.306E+03  2.778E-27  9.626E-17
1.294E+03  2.890E-27  9.920E-17
1.282E+03  3.005E-27  1.022E-16
1.271E+03  3.126E-27  1.053E-16
1.259E+03  3.251E-27  1.086E-16
1.247E+03  3.381E-27  1.119E-16
1.236E+03  3.516E-27  1.153E-16
1.225E+03  3.657E-27  1.188E-16
1.213E+03  3.803E-27  1.224E-16
1.202E+03  3.956E-27  1.261E-16
1.191E+03  4.114E-27  1.300E-16
1.180E+03  4.278E-27  1.339E-16
1.169E+03  4.449E-27  1.380E-16
1.159E+03  4.627E-27  1.422E-16
1.148E+03  4.812E-27  1.466E-16
1.138E+03  5.004E-27  1.510E-16
1.127E+03  5.204E-27  1.556E-16
1.117E+03  5.411E-27  1.603E-16
1.107E+03  5.627E-27  1.652E-16
1.096E+03  5.852E-27  1.702E-16
1.086E+03  6.085E-27  1.754E-16
1.076E+03  6.327E-27  1.807E-16
1.067E+03  6.579E-27  1.861E-16
1.057E+03  6.841E-27  1.918E-16
1.047E+03  7.113E-27  1.976E-16
1.038E+03  7.396E-27  2.035E-16
1.028E+03  7.690E-27  2.097E-16
1.019E+03  7.995E-27  2.160E-16
1.009E+03  8.313E-27  2.225E-16
1.000E+03  8.642E-27  2.292E-16
9.908E+02  8.985E-27  2.362E-16
9.817E+02  9.342E-27  2.433E-16
9.727E+02  9.713E-27  2.506E-16
9.638E+02  1.010E-26  2.582E-16
9.550E+02  1.050E-26  2.659E-16
9.462E+02  1.091E-26  2.739E-16
9.376E+02  1.135E-26  2.821E-16
9.290E+02  1.179E-26  2.906E-16
9.204E+02  1.226E-26  2.993E-16
9.120E+02  1.274E-26  3.083E-16
9.036E+02  1.325E-26  3.175E-16
8.954E+02  1.377E-26  3.270E-16
8.872E+02  1.431E-26  3.368E-16
8.790E+02  1.487E-26  3.468E-16
8.710E+02  1.546E-26  3.571E-16
8.630E+02  1.607E-26  3.678E-16
8.551E+02  1.670E-26  3.787E-16
8.472E+02  1.735E-26  3.899E-16
8.395E+02  1.803E-26  4.015E-16
8.318E+02  1.874E-26  4.134E-16
8.241E+02  1.947E-26  4.256E-16
8.166E+02  2.023E-26  4.381E-16
8.091E+02  2.102E-26  4.510E-16
8.017E+02  2.183E-26  4.643E-16
7.943E+02  2.268E-26  4.780E-16
7.870E+02  2.357E-26  4.920E-16
7.798E+02  2.448E-26  5.064E-16
7.727E+02  2.543E-26  5.213E-16
7.656E+02  2.642E-26  5.365E-16
7.586E+02  2.744E-26  5.522E-16
7.516E+02  2.850E-26  5.683E-16
7.447E+02  2.961E-26  5.849E-16
7.379E+02  3.075E-26  6.020E-16
7.311E+02  3.195E-26  6.195E-16
7.244E+02  3.318E-26  6.376E-16
7.178E+02  3.446E-26  6.562E-16
7.112E+02  3.580E-26  6.753E-16
7.047E+02  3.718E-26  6.950E-16
6.982E+02  3.862E-26  7.152E-16
6.918E+02  4.010E-26  7.360E-16
6.855E+02  4.165E-26  7.573E-16
6.792E+02  4.326E-26  7.793E-16
6.730E+02  4.492E-26  8.018E-16
6.668E+02  4.664E-26  8.250E-16
6.607E+02  4.843E-26  8.488E-16
6.546E+02  5.029E-26  8.733E-16
6.486E+02  5.223E-26  8.986E-16
6.427E+02  5.424E-26  9.246E-16
6.368E+02  5.632E-26  9.514E-16
6.310E+02  5.849E-26  9.789E-16
6.252E+02  6.073E-26  1.007E-15
6.194E+02  6.306E-26  1.036E-15
6.138E+02  6.548E-26  1.066E-15
6.081E+02  6.799E-26  1.097E-15
6.026E+02  7.060E-26  1.128E-15
5.970E+02  7.330E-26  1.161E-15
5.916E+02  7.611E-26  1.194E-15
5.861E+02  7.902E-26  1.229E-15
5.808E+02  8.204E-26  1.264E-15
5.754E+02  8.518E-26  1.300E-15
5.702E+02  8.843E-26  1.337E-15
5.649E+02  9.180E-26  1.376E-15
5.598E+02  9.531E-26  1.415E-15
5.546E+02  9.894E-26  1.456E-15
5.495E+02  1.027E-25  1.497E-15
5.445E+02  1.066E-25  1.540E-15
5.395E+02  1.107E-25  1.584E-15
5.346E+02  1.149E-25  1.629E-15
5.297E+02  1.192E-25  1.675E-15
5.248E+02  1.238E-25  1.723E-15
5.200E+02  1.285E-25  1.772E-15
5.152E+02  1.333E-25  1.822E-15
5.105E+02  1.384E-25  1.874E-15
5.058E+02  1.436E-25  1.927E-15
5.012E+02  1.490E-25  1.981E-15
4.966E+02  1.547E-25  2.037E-15
4.920E+02  1.605E-25  2.095E-15
4.875E+02  1.666E-25  2.154E-15
4.831E+02  1.728E-25  2.214E-15
4.786E+02  1.793E-25  2.277E-15
4.742E+02  1.861E-25  2.340E-15
4.699E+02  1.930E-25  2.406E-15
4.656E+02  2.003E-25  2.473E-15
4.613E+02  2.078E-25  2.542E-15
4.571E+02  2.155E-25  2.613E-15
4.529E+02  2.236E-25  2.686E-15
4.487E+02  2.319E-25  2.761E-15
4.446E+02  2.406E-25  2.837E-15
4.406E+02  2.495E-25  2.916E-15
4.365E+02  2.588E-25  2.996E-15
4.325E+02  2.684E-25  3.079E-15
4.285E+02  2.783E-25  3.164E-15
4.246E+02  2.886E-25  3.251E-15
4.207E+02  2.993E-25  3.340E-15
4.169E+02  3.103E-25  3.432E-15
4.130E+02  3.218E-25  3.526E-15
4.093E+02  3.336E-25  3.622E-15
4.055E+02  3.459E-25  3.721E-15
4.018E+02  3.586E-25  3.822E-15
3.981E+02  3.717E-25  3.926E-15
3.945E+02  3.853E-25  4.032E-15
3.908E+02  3.994E-25  4.141E-15
3.873E+02  4.140E-25  4.253E-15
3.837E+02  4.291E-25  4.367E-15
3.802E+02  4.447E-25  4.485E-15
3.767E+02  4.609E-25  4.605E-15
3.733E+02  4.776E-25  4.728E-15
3.698E+02  4.948E-25  4.854E-15
3.664E+02  5.127E-25  4.984E-15
3.631E+02  5.312E-25  5.116E-15
3.597E+02  5.503E-25  5.252E-15
3.565E+02  5.701E-25  5.390E-15
3.532E+02  5.905E-25  5.532E-15
3.499E+02  6.116E-25  5.678E-15
3.467E+02  6.335E-25  5.826E-15
3.436E+02  6.560E-25  5.979E-15
3.404E+02  6.794E-25  6.134E-15
3.373E+02  7.034E-25  6.294E-15
3.342E+02  7.283E-25  6.456E-15
3.311E+02  7.540E-25  6.623E-15
3.281E+02  7.806E-25  6.793E-15
3.251E+02  8.080E-25  6.968E-15
3.221E+02  8.363E-25  7.146E-15
3.192E+02  8.656E-25  7.328E-15
3.162E+02  8.957E-25  7.514E-15
3.133E+02  9.269E-25  7.704E-15
3.105E+02  9.590E-25  7.898E-15
3.076E+02  9.922E-25  8.096E-15
3.048E+02  1.026E-24  8.299E-15
3.020E+02  1.062E-24  8.505E-15
2.992E+02  1.098E-24  8.717E-15
2.965E+02  1.136E-24  8.932E-15
2.938E+02  1.174E-24  9.152E-15
2.911E+02  1.214E-24  9.376E-15
2.884E+02  1.256E-24  9.605E-15
2.858E+02  1.298E-24  9.839E-15
2.831E+02  1.342E-24  1.008E-14
2.805E+02  1.387E-24  1.032E-14
2.780E+02  1.433E-24  1.057E-14
2.754E+02  1.481E-24  1.082E-14
2.729E+02  1.530E-24  1.108E-14
2.704E+02  1.581E-24  1.134E-14
2.679E+02  1.634E-24  1.161E-14
2.655E+02  1.688E-24  1.188E-14
2.630E+02  1.743E-24  1.216E-14
2.606E+02  1.801E-24  1.245E-14
2.582E+02  1.859E-24  1.274E-14
2.559E+02  1.920E-24  1.303E-14
2.535E+02  1.982E-24  1.333E-14
2.512E+02  2.045E-24  1.363E-14
2.489E+02  2.109E-24  1.392E-14
2.466E+02  2.174E-24  1.422E-14
2.443E+02  2.240E-24  1.452E-14
2.421E+02  2.308E-24  1.482E-14
2.399E+02  2.376E-24  1.512E-14
2.377E+02  2.446E-24  1.542E-14
2.355E+02  2.517E-24  1.572E-14
2.333E+02  2.590E-24  1.603E-14
2.312E+02  2.664E-24  1.634E-14
2.291E+02  2.740E-24  1.665E-14
2.270E+02  2.818E-24  1.697E-14
2.249E+02  2.898E-24  1.729E-14
2.228E+02  2.979E-24  1.761E-14
2.208E+02  3.063E-24  1.794E-14
2.188E+02  3.148E-24  1.827E-14
2.168E+02  3.235E-24  1.860E-14
2.148E+02  3.324E-24  1.894E-14
2.128E+02  3.415E-24  1.928E-14
2.109E+02  3.507E-24  1.962E-14
2.089E+02  3.602E-24  1.996E-14
2.070E+02  3.699E-24  2.031E-14
2.051E+02  3.797E-24  2.066E-14
2.032E+02  3.898E-24  2.101E-14
2.014E+02  4.000E-24  2.137E-14
1.995E+02  4.105E-24  2.172E-14
1.977E+02  4.211E-24  2.208E-14
1.959E+02  4.320E-24  2.245E-14
1.941E+02  4.430E-24  2.281E-14
1.923E+02  4.543E-24  2.318E-14
1.905E+02  4.658E-24  2.354E-14
1.888E+02  4.775E-24  2.392E-14
1.871E+02  4.895E-24  2.429E-14
1.854E+02  5.016E-24  2.466E-14
1.837E+02  5.140E-24  2.504E-14
1.820E+02  5.266E-24  2.542E-14
1.803E+02  5.394E-24  2.580E-14
1.786E+02  5.525E-24  2.618E-14
1.770E+02  5.658E-24  2.656E-14
1.754E+02  5.793E-24  2.695E-14
1.738E+02  5.931E-24  2.734E-14
1.722E+02  6.071E-24  2.773E-14
1.706E+02  6.214E-24  2.812E-14
1.690E+02  6.360E-24  2.852E-14
1.675E+02  6.508E-24  2.892E-14
1.660E+02  6.659E-24  2.932E-14
1.644E+02  6.814E-24  2.972E-14
1.629E+02  6.971E-24  3.013E-14
1.614E+02  7.131E-24  3.054E-14
1.600E+02  7.294E-24  3.095E-14
1.585E+02  7.461E-24  3.137E-14
1.570E+02  7.631E-24  3.179E-14
1.556E+02  7.805E-24  3.222E-14
1.542E+02  7.983E-24  3.265E-14
1.528E+02  8.165E-24  3.308E-14
1.514E+02  8.350E-24  3.352E-14
1.500E+02  8.539E-24  3.397E-14
1.486E+02  8.732E-24  3.442E-14
1.472E+02  8.927E-24  3.487E-14
1.459E+02  9.125E-24  3.531E-14
1.445E+02  9.322E-24  3.574E-14
1.432E+02  9.517E-24  3.615E-14
1.419E+02  9.707E-24  3.654E-14
1.406E+02  9.888E-24  3.688E-14
1.393E+02  1.006E-23  3.717E-14
1.380E+02  1.022E-23  3.741E-14
1.368E+02  1.036E-23  3.759E-14
1.355E+02  1.050E-23  3.773E-14
1.343E+02  1.062E-23  3.784E-14
1.330E+02  1.075E-23  3.792E-14
1.318E+02  1.087E-23  3.800E-14
1.306E+02  1.099E-23  3.807E-14
1.294E+02  1.111E-23  3.815E-14
1.282E+02  1.124E-23  3.822E-14
1.271E+02  1.136E-23  3.830E-14
1.259E+02  1.149E-23  3.838E-14
1.247E+02  1.163E-23  3.847E-14
1.236E+02  1.176E-23  3.856E-14
1.225E+02  1.190E-23  3.866E-14
1.213E+02  1.204E-23  3.876E-14
1.202E+02  1.218E-23  3.886E-14
1.191E+02  1.233E-23  3.896E-14
1.180E+02  1.247E-23  3.906E-14
1.169E+02  1.262E-23  3.915E-14
1.159E+02  1.277E-23  3.925E-14
1.148E+02  1.292E-23  3.934E-14
1.138E+02  1.307E-23  3.943E-14
1.127E+02  1.322E-23  3.952E-14
1.117E+02  1.337E-23  3.961E-14
1.107E+02  1.352E-23  3.970E-14
1.096E+02  1.368E-23  3.978E-14
1.086E+02  1.383E-23  3.986E-14
1.076E+02  1.398E-23  3.993E-14
1.067E+02  1.414E-23  4.000E-14
1.057E+02  1.429E-23  4.006E-14
1.047E+02  1.444E-23  4.012E-14
1.038E+02  1.460E-23  4.017E-14
1.028E+02  1.475E-23  4.022E-14
1.019E+02  1.490E-23  4.026E-14
1.009E+02  1.505E-23  4.029E-14
1.000E+02  1.520E-23  4.031E-14
9.908E+01  1.534E-23  4.033E-14
9.817E+01  1.549E-23  4.034E-14
9.727E+01  1.563E-23  4.034E-14
9.638E+01  1.578E-23  4.033E-14
9.550E+01  1.592E-23  4.032E-14
9.462E+01  1.605E-23  4.030E-14
9.376E+01  1.619E-23  4.027E-14
9.290E+01  1.632E-23  4.023E-14
9.204E+01  1.646E-23  4.018E-14
9.120E+01  1.659E-23  4.012E-14
9.036E+01  1.671E-23  4.006E-14
8.954E+01  1.684E-23  3.999E-14
8.872E+01  1.696E-23  3.991E-14
8.790E+01  1.708E-23  3.983E-14
8.710E+01  1.720E-23  3.974E-14
8.630E+01  1.732E-23  3.964E-14
8.551E+01  1.743E-23  3.954E-14
8.472E+01  1.754E-23  3.943E-14
8.395E+01  1.765E-23  3.931E-14
8.318E+01  1.776E-23  3.918E-14
8.241E+01  1.786E-23  3.905E-14
8.166E+01  1.796E-23  3.891E-14
8.091E+01  1.806E-23  3.876E-14
8.017E+01  1.816E-23  3.861E-14
7.943E+01  1.825E-23  3.845E-14
7.870E+01  1.834E-23  3.829E-14
7.798E+01  1.842E-23  3.811E-14
7.727E+01  1.851E-23  3.793E-14
7.656E+01  1.859E-23  3.775E-14
7.586E+01  1.866E-23  3.756E-14
7.516E+01  1.874E-23  3.736E-14
7.447E+01  1.881E-23  3.715E-14
7.379E+01  1.887E-23  3.694E-14
7.311E+01  1.894E-23  3.673E-14
7.244E+01  1.900E-23  3.650E-14
7.178E+01  1.905E-23  3.627E-14
7.112E+01  1.910E-23  3.604E-14
7.047E+01  1.915E-23  3.580E-14
6.982E+01  1.920E-23  3.557E-14
6.918E+01  1.925E-23  3.532E-14
6.855E+01  1.929E-23  3.507E-14
6.792E+01  1.932E-23  3.481E-14
6.730E+01  1.936E-23  3.456E-14
6.668E+01  1.939E-23  3.429E-14
6.607E+01  1.942E-23  3.403E-14
6.546E+01  1.944E-23  3.376E-14
6.486E+01  1.946E-23  3.349E-14
6.427E+01  1.948E-23  3.321E-14
6.368E+01  1.949E-23  3.293E-14
6.310E+01  1.951E-23  3.265E-14
6.252E+01  1.952E-23  3.237E-14
6.194E+01  1.952E-23  3.208E-14
6.138E+01  1.953E-23  3.179E-14
6.081E+01  1.953E-23  3.151E-14
6.026E+01  1.953E-23  3.121E-14
5.970E+01  1.952E-23  3.092E-14
5.916E+01  1.952E-23  3.063E-14
5.861E+01  1.951E-23  3.033E-14
5.808E+01  1.949E-23  3.003E-14
5.754E+01  1.948E-23  2.973E-14
5.702E+01  1.946E-23  2.943E-14
5.649E+01  1.944E-23  2.913E-14
5.598E+01  1.942E-23  2.883E-14
5.546E+01  1.939E-23  2.853E-14
5.495E+01  1.937E-23  2.823E-14
5.445E+01  1.934E-23  2.793E-14
5.395E+01  1.931E-23  2.763E-14
5.346E+01  1.928E-23  2.733E-14
5.297E+01  1.924E-23  2.703E-14
5.248E+01  1.920E-23  2.673E-14
5.200E+01  1.916E-23  2.643E-14
5.152E+01  1.912E-23  2.613E-14
5.105E+01  1.908E-23  2.584E-14
5.058E+01  1.903E-23  2.554E-14
5.012E+01  1.899E-23  2.524E-14
4.966E+01  1.894E-23  2.494E-14
