Dust emission from Draine & Li (2007): ApJ 657, 810-837
================================================================
        11 = grain model
 4.000E-08 4.000E-01 0.000E+00 = a_01 (cm) , sigma_1 , b_C1/0.92
 2.500E-07 4.000E-01 0.000E+00 = a_02 (cm) , sigma_2 , b_C2/0.92
 1.000E+00 1.000E+04 2.000E+00 = Umin , Umax, beta (dN/dU propto U^{-beta})
 9.211E+00 = <U> 
     mmp83 = radfield
 5.087E-24 = power/H (erg s-1)
 band   nu*P_nu(band) j_nu(band)
 (um)   (erg s-1 H-1)(Jy cm2 sr-1 H-1)
1.270E+00  5.163E-27  1.739E-19 COBE-DIRBE
2.220E+00  8.669E-27  5.105E-19 COBE-DIRBE
3.530E+00  1.483E-26  1.388E-18 COBE-DIRBE
4.880E+00  1.120E-26  1.449E-18 COBE-DIRBE
1.229E+01  1.594E-25  5.196E-17 COBE-DIRBE
2.079E+01  6.044E-25  3.333E-16 COBE-DIRBE
5.599E+01  2.878E-24  4.275E-15 COBE-DIRBE
9.770E+01  2.402E-24  6.225E-15 COBE-DIRBE
1.479E+02  1.440E-24  5.648E-15 COBE-DIRBE
2.479E+02  4.262E-25  2.802E-15 COBE-DIRBE
1.200E+01  1.477E-25  4.700E-17 IRAS
2.500E+01  8.583E-25  5.692E-16 IRAS
6.000E+01  2.861E-24  4.554E-15 IRAS
1.000E+02  2.352E-24  6.239E-15 IRAS
3.550E+00  1.584E-26  1.491E-18 SST-IRAC
4.493E+00  1.051E-26  1.252E-18 SST-IRAC
5.731E+00  2.463E-26  3.744E-18 SST-IRAC
7.872E+00  1.034E-25  2.159E-17 SST-IRAC
2.368E+01  8.198E-25  5.150E-16 SST-MIPS
7.142E+01  2.614E-24  4.952E-15 SST-MIPS
1.559E+02  1.228E-24  5.079E-15 SST-MIPS
1.600E+01  2.235E-25  9.486E-17 SST-IRSPU
2.200E+01  7.699E-25  4.493E-16 SST-IRSPU











lambda    nu*dP/dnu     j_nu
 (um)   (erg s-1 H-1)(Jy cm2 sr-1 H-1)
1.000E+04  1.442E-31  3.825E-20
9.908E+03  1.494E-31  3.928E-20
9.817E+03  1.549E-31  4.033E-20
9.727E+03  1.605E-31  4.141E-20
9.638E+03  1.663E-31  4.251E-20
9.550E+03  1.723E-31  4.365E-20
9.462E+03  1.786E-31  4.482E-20
9.376E+03  1.850E-31  4.601E-20
9.290E+03  1.917E-31  4.725E-20
9.204E+03  1.987E-31  4.851E-20
9.120E+03  2.059E-31  4.981E-20
9.036E+03  2.133E-31  5.114E-20
8.954E+03  2.210E-31  5.250E-20
8.872E+03  2.290E-31  5.389E-20
8.790E+03  2.372E-31  5.532E-20
8.710E+03  2.458E-31  5.679E-20
8.630E+03  2.547E-31  5.829E-20
8.551E+03  2.638E-31  5.984E-20
8.472E+03  2.734E-31  6.144E-20
8.395E+03  2.833E-31  6.307E-20
8.318E+03  2.935E-31  6.475E-20
8.241E+03  3.041E-31  6.648E-20
8.166E+03  3.151E-31  6.826E-20
8.091E+03  3.265E-31  7.008E-20
8.017E+03  3.384E-31  7.195E-20
7.943E+03  3.506E-31  7.388E-20
7.870E+03  3.634E-31  7.586E-20
7.798E+03  3.766E-31  7.789E-20
7.727E+03  3.902E-31  7.998E-20
7.656E+03  4.044E-31  8.213E-20
7.586E+03  4.191E-31  8.434E-20
7.516E+03  4.344E-31  8.660E-20
7.447E+03  4.502E-31  8.893E-20
7.379E+03  4.666E-31  9.133E-20
7.311E+03  4.836E-31  9.379E-20
7.244E+03  5.012E-31  9.632E-20
7.178E+03  5.195E-31  9.892E-20
7.112E+03  5.385E-31  1.016E-19
7.047E+03  5.582E-31  1.043E-19
6.982E+03  5.786E-31  1.072E-19
6.918E+03  5.997E-31  1.101E-19
6.855E+03  6.216E-31  1.130E-19
6.792E+03  6.443E-31  1.161E-19
6.730E+03  6.679E-31  1.192E-19
6.668E+03  6.923E-31  1.225E-19
6.607E+03  7.176E-31  1.258E-19
6.546E+03  7.439E-31  1.292E-19
6.486E+03  7.712E-31  1.327E-19
6.427E+03  7.995E-31  1.363E-19
6.368E+03  8.288E-31  1.400E-19
6.310E+03  8.593E-31  1.438E-19
6.252E+03  8.909E-31  1.477E-19
6.194E+03  9.236E-31  1.518E-19
6.138E+03  9.576E-31  1.559E-19
6.081E+03  9.929E-31  1.602E-19
6.026E+03  1.029E-30  1.645E-19
5.970E+03  1.067E-30  1.690E-19
5.916E+03  1.107E-30  1.737E-19
5.861E+03  1.148E-30  1.784E-19
5.808E+03  1.190E-30  1.833E-19
5.754E+03  1.234E-30  1.884E-19
5.702E+03  1.280E-30  1.935E-19
5.649E+03  1.327E-30  1.988E-19
5.598E+03  1.376E-30  2.043E-19
5.546E+03  1.427E-30  2.099E-19
5.495E+03  1.480E-30  2.157E-19
5.445E+03  1.535E-30  2.217E-19
5.395E+03  1.592E-30  2.278E-19
5.346E+03  1.651E-30  2.341E-19
5.297E+03  1.712E-30  2.405E-19
5.248E+03  1.776E-30  2.472E-19
5.200E+03  1.842E-30  2.540E-19
5.152E+03  1.910E-30  2.611E-19
5.105E+03  1.981E-30  2.683E-19
5.058E+03  2.055E-30  2.757E-19
5.012E+03  2.132E-30  2.834E-19
4.966E+03  2.211E-30  2.913E-19
4.920E+03  2.293E-30  2.993E-19
4.875E+03  2.379E-30  3.077E-19
4.831E+03  2.468E-30  3.162E-19
4.786E+03  2.560E-30  3.250E-19
4.742E+03  2.656E-30  3.341E-19
4.699E+03  2.755E-30  3.434E-19
4.656E+03  2.858E-30  3.529E-19
4.613E+03  2.965E-30  3.628E-19
4.571E+03  3.076E-30  3.729E-19
4.529E+03  3.191E-30  3.834E-19
4.487E+03  3.311E-30  3.941E-19
4.446E+03  3.435E-30  4.051E-19
4.406E+03  3.564E-30  4.165E-19
4.365E+03  3.698E-30  4.282E-19
4.325E+03  3.837E-30  4.402E-19
4.285E+03  3.981E-30  4.526E-19
4.246E+03  4.131E-30  4.653E-19
4.207E+03  4.287E-30  4.784E-19
4.169E+03  4.448E-30  4.919E-19
4.130E+03  4.616E-30  5.058E-19
4.093E+03  4.790E-30  5.200E-19
4.055E+03  4.971E-30  5.347E-19
4.018E+03  5.159E-30  5.498E-19
3.981E+03  5.354E-30  5.653E-19
3.945E+03  5.556E-30  5.813E-19
3.908E+03  5.765E-30  5.977E-19
3.873E+03  5.983E-30  6.146E-19
3.837E+03  6.210E-30  6.320E-19
3.802E+03  6.445E-30  6.499E-19
3.767E+03  6.689E-30  6.684E-19
3.733E+03  6.942E-30  6.873E-19
3.698E+03  7.206E-30  7.069E-19
3.664E+03  7.479E-30  7.270E-19
3.631E+03  7.763E-30  7.477E-19
3.597E+03  8.058E-30  7.690E-19
3.565E+03  8.365E-30  7.909E-19
3.532E+03  8.683E-30  8.135E-19
3.499E+03  9.014E-30  8.367E-19
3.467E+03  9.358E-30  8.607E-19
3.436E+03  9.715E-30  8.853E-19
3.404E+03  1.009E-29  9.107E-19
3.373E+03  1.047E-29  9.368E-19
3.342E+03  1.087E-29  9.637E-19
3.311E+03  1.129E-29  9.914E-19
3.281E+03  1.172E-29  1.020E-18
3.251E+03  1.217E-29  1.049E-18
3.221E+03  1.263E-29  1.079E-18
3.192E+03  1.312E-29  1.111E-18
3.162E+03  1.362E-29  1.143E-18
3.133E+03  1.415E-29  1.176E-18
3.105E+03  1.469E-29  1.210E-18
3.076E+03  1.525E-29  1.245E-18
3.048E+03  1.584E-29  1.281E-18
3.020E+03  1.645E-29  1.318E-18
2.992E+03  1.708E-29  1.356E-18
2.965E+03  1.774E-29  1.395E-18
2.938E+03  1.842E-29  1.435E-18
2.911E+03  1.913E-29  1.477E-18
2.884E+03  1.986E-29  1.520E-18
2.858E+03  2.063E-29  1.564E-18
2.831E+03  2.142E-29  1.609E-18
2.805E+03  2.225E-29  1.656E-18
2.780E+03  2.311E-29  1.704E-18
2.754E+03  2.400E-29  1.753E-18
2.729E+03  2.492E-29  1.804E-18
2.704E+03  2.589E-29  1.857E-18
2.679E+03  2.689E-29  1.911E-18
2.655E+03  2.793E-29  1.967E-18
2.630E+03  2.901E-29  2.024E-18
2.606E+03  3.014E-29  2.083E-18
2.582E+03  3.130E-29  2.144E-18
2.559E+03  3.252E-29  2.207E-18
2.535E+03  3.378E-29  2.272E-18
2.512E+03  3.509E-29  2.338E-18
2.489E+03  3.646E-29  2.407E-18
2.466E+03  3.787E-29  2.477E-18
2.443E+03  3.935E-29  2.550E-18
2.421E+03  4.088E-29  2.625E-18
2.399E+03  4.247E-29  2.702E-18
2.377E+03  4.413E-29  2.782E-18
2.355E+03  4.585E-29  2.864E-18
2.333E+03  4.763E-29  2.948E-18
2.312E+03  4.949E-29  3.035E-18
2.291E+03  5.143E-29  3.125E-18
2.270E+03  5.344E-29  3.217E-18
2.249E+03  5.552E-29  3.312E-18
2.228E+03  5.769E-29  3.410E-18
2.208E+03  5.995E-29  3.511E-18
2.188E+03  6.230E-29  3.615E-18
2.168E+03  6.474E-29  3.722E-18
2.148E+03  6.727E-29  3.833E-18
2.128E+03  6.991E-29  3.946E-18
2.109E+03  7.265E-29  4.063E-18
2.089E+03  7.550E-29  4.184E-18
2.070E+03  7.846E-29  4.308E-18
2.051E+03  8.154E-29  4.436E-18
2.032E+03  8.473E-29  4.568E-18
2.014E+03  8.806E-29  4.704E-18
1.995E+03  9.152E-29  4.844E-18
1.977E+03  9.511E-29  4.988E-18
1.959E+03  9.885E-29  5.136E-18
1.941E+03  1.027E-28  5.289E-18
1.923E+03  1.068E-28  5.446E-18
1.905E+03  1.110E-28  5.608E-18
1.888E+03  1.153E-28  5.776E-18
1.871E+03  1.199E-28  5.948E-18
1.854E+03  1.246E-28  6.125E-18
1.837E+03  1.295E-28  6.308E-18
1.820E+03  1.346E-28  6.496E-18
1.803E+03  1.399E-28  6.690E-18
1.786E+03  1.454E-28  6.890E-18
1.770E+03  1.511E-28  7.095E-18
1.754E+03  1.571E-28  7.307E-18
1.738E+03  1.633E-28  7.526E-18
1.722E+03  1.697E-28  7.751E-18
1.706E+03  1.764E-28  7.982E-18
1.690E+03  1.833E-28  8.221E-18
1.675E+03  1.906E-28  8.467E-18
1.660E+03  1.981E-28  8.720E-18
1.644E+03  2.059E-28  8.981E-18
1.629E+03  2.140E-28  9.250E-18
1.614E+03  2.225E-28  9.526E-18
1.600E+03  2.312E-28  9.811E-18
1.585E+03  2.404E-28  1.010E-17
1.570E+03  2.498E-28  1.041E-17
1.556E+03  2.597E-28  1.072E-17
1.542E+03  2.699E-28  1.104E-17
1.528E+03  2.806E-28  1.137E-17
1.514E+03  2.917E-28  1.171E-17
1.500E+03  3.032E-28  1.206E-17
1.486E+03  3.151E-28  1.242E-17
1.472E+03  3.276E-28  1.279E-17
1.459E+03  3.405E-28  1.318E-17
1.445E+03  3.540E-28  1.357E-17
1.432E+03  3.679E-28  1.398E-17
1.419E+03  3.825E-28  1.440E-17
1.406E+03  3.976E-28  1.483E-17
1.393E+03  4.133E-28  1.527E-17
1.380E+03  4.296E-28  1.573E-17
1.368E+03  4.465E-28  1.620E-17
1.355E+03  4.641E-28  1.668E-17
1.343E+03  4.825E-28  1.718E-17
1.330E+03  5.015E-28  1.770E-17
1.318E+03  5.213E-28  1.823E-17
1.306E+03  5.418E-28  1.877E-17
1.294E+03  5.632E-28  1.933E-17
1.282E+03  5.854E-28  1.991E-17
1.271E+03  6.085E-28  2.051E-17
1.259E+03  6.324E-28  2.112E-17
1.247E+03  6.574E-28  2.175E-17
1.236E+03  6.832E-28  2.240E-17
1.225E+03  7.101E-28  2.307E-17
1.213E+03  7.381E-28  2.376E-17
1.202E+03  7.671E-28  2.446E-17
1.191E+03  7.972E-28  2.519E-17
1.180E+03  8.286E-28  2.594E-17
1.169E+03  8.611E-28  2.671E-17
1.159E+03  8.949E-28  2.751E-17
1.148E+03  9.301E-28  2.833E-17
1.138E+03  9.666E-28  2.917E-17
1.127E+03  1.004E-27  3.003E-17
1.117E+03  1.044E-27  3.092E-17
1.107E+03  1.085E-27  3.184E-17
1.096E+03  1.127E-27  3.278E-17
1.086E+03  1.171E-27  3.376E-17
1.076E+03  1.217E-27  3.475E-17
1.067E+03  1.265E-27  3.578E-17
1.057E+03  1.314E-27  3.684E-17
1.047E+03  1.365E-27  3.792E-17
1.038E+03  1.419E-27  3.904E-17
1.028E+03  1.474E-27  4.019E-17
1.019E+03  1.531E-27  4.138E-17
1.009E+03  1.591E-27  4.259E-17
1.000E+03  1.653E-27  4.384E-17
9.908E+02  1.717E-27  4.513E-17
9.817E+02  1.784E-27  4.646E-17
9.727E+02  1.853E-27  4.782E-17
9.638E+02  1.926E-27  4.923E-17
9.550E+02  2.000E-27  5.067E-17
9.462E+02  2.078E-27  5.216E-17
9.376E+02  2.159E-27  5.368E-17
9.290E+02  2.242E-27  5.525E-17
9.204E+02  2.329E-27  5.686E-17
9.120E+02  2.419E-27  5.852E-17
9.036E+02  2.513E-27  6.023E-17
8.954E+02  2.610E-27  6.198E-17
8.872E+02  2.710E-27  6.378E-17
8.790E+02  2.815E-27  6.563E-17
8.710E+02  2.923E-27  6.752E-17
8.630E+02  3.035E-27  6.948E-17
8.551E+02  3.151E-27  7.148E-17
8.472E+02  3.272E-27  7.354E-17
8.395E+02  3.398E-27  7.565E-17
8.318E+02  3.527E-27  7.783E-17
8.241E+02  3.662E-27  8.006E-17
8.166E+02  3.802E-27  8.235E-17
8.091E+02  3.947E-27  8.470E-17
8.017E+02  4.097E-27  8.712E-17
7.943E+02  4.252E-27  8.960E-17
7.870E+02  4.414E-27  9.214E-17
7.798E+02  4.581E-27  9.476E-17
7.727E+02  4.754E-27  9.745E-17
7.656E+02  4.934E-27  1.002E-16
7.586E+02  5.121E-27  1.030E-16
7.516E+02  5.314E-27  1.059E-16
7.447E+02  5.515E-27  1.089E-16
7.379E+02  5.723E-27  1.120E-16
7.311E+02  5.939E-27  1.152E-16
7.244E+02  6.163E-27  1.184E-16
7.178E+02  6.396E-27  1.218E-16
7.112E+02  6.637E-27  1.252E-16
7.047E+02  6.887E-27  1.287E-16
6.982E+02  7.147E-27  1.324E-16
6.918E+02  7.416E-27  1.361E-16
6.855E+02  7.695E-27  1.399E-16
6.792E+02  7.984E-27  1.438E-16
6.730E+02  8.283E-27  1.479E-16
6.668E+02  8.593E-27  1.520E-16
6.607E+02  8.915E-27  1.562E-16
6.546E+02  9.249E-27  1.606E-16
6.486E+02  9.597E-27  1.651E-16
6.427E+02  9.958E-27  1.698E-16
6.368E+02  1.033E-26  1.745E-16
6.310E+02  1.072E-26  1.794E-16
6.252E+02  1.112E-26  1.844E-16
6.194E+02  1.154E-26  1.896E-16
6.138E+02  1.197E-26  1.949E-16
6.081E+02  1.242E-26  2.004E-16
6.026E+02  1.289E-26  2.060E-16
5.970E+02  1.337E-26  2.117E-16
5.916E+02  1.387E-26  2.176E-16
5.861E+02  1.439E-26  2.237E-16
5.808E+02  1.493E-26  2.300E-16
5.754E+02  1.549E-26  2.364E-16
5.702E+02  1.607E-26  2.430E-16
5.649E+02  1.667E-26  2.497E-16
5.598E+02  1.729E-26  2.567E-16
5.546E+02  1.793E-26  2.638E-16
5.495E+02  1.860E-26  2.712E-16
5.445E+02  1.930E-26  2.787E-16
5.395E+02  2.002E-26  2.865E-16
5.346E+02  2.076E-26  2.944E-16
5.297E+02  2.154E-26  3.026E-16
5.248E+02  2.234E-26  3.110E-16
5.200E+02  2.317E-26  3.196E-16
5.152E+02  2.403E-26  3.284E-16
5.105E+02  2.493E-26  3.375E-16
5.058E+02  2.585E-26  3.469E-16
5.012E+02  2.681E-26  3.564E-16
4.966E+02  2.780E-26  3.663E-16
4.920E+02  2.884E-26  3.764E-16
4.875E+02  2.990E-26  3.867E-16
4.831E+02  3.101E-26  3.974E-16
4.786E+02  3.216E-26  4.083E-16
4.742E+02  3.334E-26  4.195E-16
4.699E+02  3.457E-26  4.309E-16
4.656E+02  3.585E-26  4.427E-16
4.613E+02  3.717E-26  4.548E-16
4.571E+02  3.854E-26  4.673E-16
4.529E+02  3.996E-26  4.800E-16
4.487E+02  4.142E-26  4.931E-16
4.446E+02  4.294E-26  5.065E-16
4.406E+02  4.452E-26  5.202E-16
4.365E+02  4.615E-26  5.343E-16
4.325E+02  4.783E-26  5.488E-16
4.285E+02  4.958E-26  5.636E-16
4.246E+02  5.139E-26  5.789E-16
4.207E+02  5.327E-26  5.944E-16
4.169E+02  5.521E-26  6.105E-16
4.130E+02  5.721E-26  6.268E-16
4.093E+02  5.929E-26  6.437E-16
4.055E+02  6.145E-26  6.609E-16
4.018E+02  6.367E-26  6.786E-16
3.981E+02  6.598E-26  6.967E-16
3.945E+02  6.837E-26  7.154E-16
3.908E+02  7.084E-26  7.344E-16
3.873E+02  7.340E-26  7.540E-16
3.837E+02  7.605E-26  7.741E-16
3.802E+02  7.879E-26  7.946E-16
3.767E+02  8.162E-26  8.156E-16
3.733E+02  8.455E-26  8.371E-16
3.698E+02  8.758E-26  8.592E-16
3.664E+02  9.072E-26  8.818E-16
3.631E+02  9.396E-26  9.050E-16
3.597E+02  9.731E-26  9.286E-16
3.565E+02  1.008E-25  9.529E-16
3.532E+02  1.044E-25  9.777E-16
3.499E+02  1.081E-25  1.003E-15
3.467E+02  1.119E-25  1.029E-15
3.436E+02  1.159E-25  1.056E-15
3.404E+02  1.199E-25  1.083E-15
3.373E+02  1.242E-25  1.111E-15
3.342E+02  1.285E-25  1.140E-15
3.311E+02  1.331E-25  1.169E-15
3.281E+02  1.377E-25  1.199E-15
3.251E+02  1.425E-25  1.229E-15
3.221E+02  1.475E-25  1.260E-15
3.192E+02  1.526E-25  1.292E-15
3.162E+02  1.579E-25  1.325E-15
3.133E+02  1.634E-25  1.358E-15
3.105E+02  1.690E-25  1.392E-15
3.076E+02  1.748E-25  1.427E-15
3.048E+02  1.809E-25  1.462E-15
3.020E+02  1.871E-25  1.499E-15
2.992E+02  1.935E-25  1.536E-15
2.965E+02  2.001E-25  1.573E-15
2.938E+02  2.069E-25  1.612E-15
2.911E+02  2.139E-25  1.651E-15
2.884E+02  2.211E-25  1.692E-15
2.858E+02  2.286E-25  1.733E-15
2.831E+02  2.363E-25  1.775E-15
2.805E+02  2.442E-25  1.817E-15
2.780E+02  2.523E-25  1.861E-15
2.754E+02  2.608E-25  1.905E-15
2.729E+02  2.694E-25  1.950E-15
2.704E+02  2.784E-25  1.997E-15
2.679E+02  2.877E-25  2.044E-15
2.655E+02  2.972E-25  2.093E-15
2.630E+02  3.070E-25  2.142E-15
2.606E+02  3.171E-25  2.192E-15
2.582E+02  3.275E-25  2.244E-15
2.559E+02  3.382E-25  2.295E-15
2.535E+02  3.491E-25  2.347E-15
2.512E+02  3.602E-25  2.400E-15
2.489E+02  3.714E-25  2.452E-15
2.466E+02  3.826E-25  2.503E-15
2.443E+02  3.940E-25  2.554E-15
2.421E+02  4.056E-25  2.604E-15
2.399E+02  4.173E-25  2.655E-15
2.377E+02  4.291E-25  2.705E-15
2.355E+02  4.410E-25  2.755E-15
2.333E+02  4.533E-25  2.806E-15
2.312E+02  4.658E-25  2.857E-15
2.291E+02  4.786E-25  2.908E-15
2.270E+02  4.917E-25  2.960E-15
2.249E+02  5.050E-25  3.013E-15
2.228E+02  5.186E-25  3.065E-15
2.208E+02  5.325E-25  3.119E-15
2.188E+02  5.466E-25  3.172E-15
2.168E+02  5.611E-25  3.226E-15
2.148E+02  5.758E-25  3.281E-15
2.128E+02  5.908E-25  3.335E-15
2.109E+02  6.061E-25  3.390E-15
2.089E+02  6.216E-25  3.445E-15
2.070E+02  6.374E-25  3.500E-15
2.051E+02  6.535E-25  3.555E-15
2.032E+02  6.699E-25  3.611E-15
2.014E+02  6.865E-25  3.667E-15
1.995E+02  7.034E-25  3.723E-15
1.977E+02  7.207E-25  3.779E-15
1.959E+02  7.381E-25  3.835E-15
1.941E+02  7.559E-25  3.892E-15
1.923E+02  7.739E-25  3.948E-15
1.905E+02  7.922E-25  4.004E-15
1.888E+02  8.108E-25  4.061E-15
1.871E+02  8.297E-25  4.117E-15
1.854E+02  8.488E-25  4.173E-15
1.837E+02  8.683E-25  4.230E-15
1.820E+02  8.880E-25  4.286E-15
1.803E+02  9.080E-25  4.342E-15
1.786E+02  9.282E-25  4.399E-15
1.770E+02  9.487E-25  4.455E-15
1.754E+02  9.695E-25  4.511E-15
1.738E+02  9.906E-25  4.566E-15
1.722E+02  1.012E-24  4.622E-15
1.706E+02  1.034E-24  4.678E-15
1.690E+02  1.056E-24  4.733E-15
1.675E+02  1.078E-24  4.788E-15
1.660E+02  1.100E-24  4.844E-15
1.644E+02  1.123E-24  4.899E-15
1.629E+02  1.146E-24  4.954E-15
1.614E+02  1.170E-24  5.009E-15
1.600E+02  1.193E-24  5.064E-15
1.585E+02  1.218E-24  5.119E-15
1.570E+02  1.242E-24  5.174E-15
1.556E+02  1.267E-24  5.229E-15
1.542E+02  1.292E-24  5.284E-15
1.528E+02  1.318E-24  5.339E-15
1.514E+02  1.344E-24  5.395E-15
1.500E+02  1.370E-24  5.451E-15
1.486E+02  1.397E-24  5.507E-15
1.472E+02  1.425E-24  5.564E-15
1.459E+02  1.452E-24  5.620E-15
1.445E+02  1.480E-24  5.675E-15
1.432E+02  1.508E-24  5.728E-15
1.419E+02  1.535E-24  5.779E-15
1.406E+02  1.562E-24  5.825E-15
1.393E+02  1.587E-24  5.866E-15
1.380E+02  1.612E-24  5.901E-15
1.368E+02  1.635E-24  5.930E-15
1.355E+02  1.656E-24  5.955E-15
1.343E+02  1.678E-24  5.975E-15
1.330E+02  1.698E-24  5.994E-15
1.318E+02  1.719E-24  6.011E-15
1.306E+02  1.740E-24  6.027E-15
1.294E+02  1.760E-24  6.043E-15
1.282E+02  1.781E-24  6.059E-15
1.271E+02  1.803E-24  6.076E-15
1.259E+02  1.824E-24  6.091E-15
1.247E+02  1.846E-24  6.107E-15
1.236E+02  1.868E-24  6.123E-15
1.225E+02  1.890E-24  6.138E-15
1.213E+02  1.912E-24  6.153E-15
1.202E+02  1.934E-24  6.167E-15
1.191E+02  1.956E-24  6.181E-15
1.180E+02  1.978E-24  6.194E-15
1.169E+02  2.000E-24  6.206E-15
1.159E+02  2.023E-24  6.217E-15
1.148E+02  2.045E-24  6.227E-15
1.138E+02  2.067E-24  6.236E-15
1.127E+02  2.089E-24  6.245E-15
1.117E+02  2.111E-24  6.253E-15
1.107E+02  2.133E-24  6.260E-15
1.096E+02  2.154E-24  6.266E-15
1.086E+02  2.176E-24  6.272E-15
1.076E+02  2.198E-24  6.276E-15
1.067E+02  2.220E-24  6.280E-15
1.057E+02  2.241E-24  6.282E-15
1.047E+02  2.262E-24  6.283E-15
1.038E+02  2.283E-24  6.284E-15
1.028E+02  2.304E-24  6.283E-15
1.019E+02  2.325E-24  6.281E-15
1.009E+02  2.345E-24  6.277E-15
1.000E+02  2.365E-24  6.273E-15
9.908E+01  2.385E-24  6.267E-15
9.817E+01  2.404E-24  6.260E-15
9.727E+01  2.423E-24  6.252E-15
9.638E+01  2.442E-24  6.243E-15
9.550E+01  2.461E-24  6.233E-15
9.462E+01  2.479E-24  6.222E-15
9.376E+01  2.497E-24  6.210E-15
9.290E+01  2.515E-24  6.196E-15
9.204E+01  2.532E-24  6.182E-15
9.120E+01  2.549E-24  6.166E-15
9.036E+01  2.566E-24  6.150E-15
8.954E+01  2.582E-24  6.132E-15
8.872E+01  2.598E-24  6.114E-15
8.790E+01  2.614E-24  6.095E-15
8.710E+01  2.629E-24  6.075E-15
8.630E+01  2.645E-24  6.054E-15
8.551E+01  2.660E-24  6.032E-15
8.472E+01  2.674E-24  6.009E-15
8.395E+01  2.688E-24  5.985E-15
8.318E+01  2.702E-24  5.961E-15
8.241E+01  2.715E-24  5.935E-15
8.166E+01  2.728E-24  5.909E-15
8.091E+01  2.741E-24  5.883E-15
8.017E+01  2.753E-24  5.855E-15
7.943E+01  2.765E-24  5.826E-15
7.870E+01  2.777E-24  5.797E-15
7.798E+01  2.788E-24  5.767E-15
7.727E+01  2.799E-24  5.736E-15
7.656E+01  2.809E-24  5.705E-15
7.586E+01  2.819E-24  5.673E-15
7.516E+01  2.829E-24  5.641E-15
7.447E+01  2.839E-24  5.607E-15
7.379E+01  2.847E-24  5.573E-15
7.311E+01  2.856E-24  5.538E-15
7.244E+01  2.863E-24  5.503E-15
7.178E+01  2.871E-24  5.466E-15
7.112E+01  2.878E-24  5.429E-15
7.047E+01  2.885E-24  5.393E-15
6.982E+01  2.892E-24  5.357E-15
6.918E+01  2.899E-24  5.319E-15
6.855E+01  2.904E-24  5.281E-15
6.792E+01  2.909E-24  5.242E-15
6.730E+01  2.914E-24  5.202E-15
6.668E+01  2.919E-24  5.163E-15
6.607E+01  2.923E-24  5.123E-15
6.546E+01  2.927E-24  5.083E-15
6.486E+01  2.931E-24  5.042E-15
6.427E+01  2.934E-24  5.001E-15
6.368E+01  2.936E-24  4.960E-15
6.310E+01  2.939E-24  4.919E-15
6.252E+01  2.941E-24  4.877E-15
6.194E+01  2.943E-24  4.836E-15
6.138E+01  2.945E-24  4.794E-15
6.081E+01  2.946E-24  4.752E-15
6.026E+01  2.947E-24  4.710E-15
5.970E+01  2.947E-24  4.667E-15
5.916E+01  2.947E-24  4.624E-15
5.861E+01  2.946E-24  4.581E-15
5.808E+01  2.945E-24  4.537E-15
5.754E+01  2.944E-24  4.493E-15
5.702E+01  2.942E-24  4.449E-15
5.649E+01  2.940E-24  4.405E-15
5.598E+01  2.937E-24  4.361E-15
5.546E+01  2.935E-24  4.318E-15
5.495E+01  2.932E-24  4.274E-15
5.445E+01  2.929E-24  4.230E-15
5.395E+01  2.926E-24  4.187E-15
5.346E+01  2.922E-24  4.143E-15
5.297E+01  2.918E-24  4.099E-15
5.248E+01  2.913E-24  4.056E-15
5.200E+01  2.909E-24  4.012E-15
5.152E+01  2.904E-24  3.968E-15
5.105E+01  2.898E-24  3.924E-15
5.058E+01  2.892E-24  3.880E-15
5.012E+01  2.886E-24  3.836E-15
4.966E+01  2.879E-24  3.792E-15
