Dust emission from Draine & Li (2007): ApJ 657, 810-837
================================================================
         8 = grain model
 4.000E-08 4.000E-01 0.000E+00 = a_01 (cm) , sigma_1 , b_C1/0.92
 2.500E-07 4.000E-01 0.000E+00 = a_02 (cm) , sigma_2 , b_C2/0.92
 4.000E+00 4.000E+00 1.000E+00 = Umin , Umax, beta (dN/dU propto U^{-beta})
 4.000E+00 = <U> 
     mmp83 = radfield
 2.552E-24 = power/H (erg s-1)
 band   nu*P_nu(band) j_nu(band)
 (um)   (erg s-1 H-1)(Jy cm2 sr-1 H-1)
1.270E+00  5.525E-27  1.861E-19 COBE-DIRBE
2.220E+00  9.538E-27  5.617E-19 COBE-DIRBE
3.530E+00  1.056E-26  9.891E-19 COBE-DIRBE
4.880E+00  1.006E-26  1.302E-18 COBE-DIRBE
1.229E+01  9.540E-26  3.110E-17 COBE-DIRBE
2.079E+01  1.319E-25  7.276E-17 COBE-DIRBE
5.599E+01  6.131E-25  9.105E-16 COBE-DIRBE
9.770E+01  1.850E-24  4.794E-15 COBE-DIRBE
1.479E+02  1.675E-24  6.570E-15 COBE-DIRBE
2.479E+02  5.867E-25  3.857E-15 COBE-DIRBE
1.200E+01  9.742E-26  3.101E-17 IRAS
2.500E+01  1.364E-25  9.044E-17 IRAS
6.000E+01  7.458E-25  1.187E-15 IRAS
1.000E+02  1.886E-24  5.002E-15 IRAS
3.550E+00  1.058E-26  9.964E-19 SST-IRAC
4.493E+00  1.020E-26  1.216E-18 SST-IRAC
5.731E+00  1.040E-26  1.581E-18 SST-IRAC
7.872E+00  5.866E-26  1.225E-17 SST-IRAC
2.368E+01  1.312E-25  8.242E-17 SST-MIPS
7.142E+01  1.073E-24  2.032E-15 SST-MIPS
1.559E+02  1.505E-24  6.222E-15 SST-MIPS
1.600E+01  8.079E-26  3.429E-17 SST-IRSPU
2.200E+01  1.385E-25  8.084E-17 SST-IRSPU











lambda    nu*dP/dnu     j_nu
 (um)   (erg s-1 H-1)(Jy cm2 sr-1 H-1)
1.000E+04  2.088E-31  5.539E-20
9.908E+03  2.164E-31  5.688E-20
9.817E+03  2.242E-31  5.840E-20
9.727E+03  2.324E-31  5.996E-20
9.638E+03  2.408E-31  6.157E-20
9.550E+03  2.496E-31  6.322E-20
9.462E+03  2.586E-31  6.491E-20
9.376E+03  2.680E-31  6.665E-20
9.290E+03  2.777E-31  6.843E-20
9.204E+03  2.878E-31  7.027E-20
9.120E+03  2.982E-31  7.215E-20
9.036E+03  3.091E-31  7.408E-20
8.954E+03  3.202E-31  7.606E-20
8.872E+03  3.318E-31  7.807E-20
8.790E+03  3.437E-31  8.015E-20
8.710E+03  3.561E-31  8.228E-20
8.630E+03  3.690E-31  8.447E-20
8.551E+03  3.823E-31  8.672E-20
8.472E+03  3.962E-31  8.903E-20
8.395E+03  4.105E-31  9.141E-20
8.318E+03  4.254E-31  9.385E-20
8.241E+03  4.408E-31  9.636E-20
8.166E+03  4.568E-31  9.894E-20
8.091E+03  4.733E-31  1.016E-19
8.017E+03  4.905E-31  1.043E-19
7.943E+03  5.083E-31  1.071E-19
7.870E+03  5.268E-31  1.100E-19
7.798E+03  5.460E-31  1.129E-19
7.727E+03  5.658E-31  1.160E-19
7.656E+03  5.864E-31  1.191E-19
7.586E+03  6.078E-31  1.223E-19
7.516E+03  6.299E-31  1.256E-19
7.447E+03  6.529E-31  1.290E-19
7.379E+03  6.767E-31  1.325E-19
7.311E+03  7.015E-31  1.360E-19
7.244E+03  7.271E-31  1.397E-19
7.178E+03  7.537E-31  1.435E-19
7.112E+03  7.812E-31  1.474E-19
7.047E+03  8.098E-31  1.514E-19
6.982E+03  8.395E-31  1.555E-19
6.918E+03  8.701E-31  1.597E-19
6.855E+03  9.020E-31  1.640E-19
6.792E+03  9.350E-31  1.685E-19
6.730E+03  9.692E-31  1.730E-19
6.668E+03  1.005E-30  1.777E-19
6.607E+03  1.042E-30  1.825E-19
6.546E+03  1.080E-30  1.875E-19
6.486E+03  1.120E-30  1.926E-19
6.427E+03  1.161E-30  1.979E-19
6.368E+03  1.203E-30  2.033E-19
6.310E+03  1.248E-30  2.088E-19
6.252E+03  1.294E-30  2.145E-19
6.194E+03  1.341E-30  2.204E-19
6.138E+03  1.391E-30  2.264E-19
6.081E+03  1.442E-30  2.326E-19
6.026E+03  1.495E-30  2.390E-19
5.970E+03  1.550E-30  2.455E-19
5.916E+03  1.608E-30  2.523E-19
5.861E+03  1.667E-30  2.592E-19
5.808E+03  1.729E-30  2.663E-19
5.754E+03  1.793E-30  2.737E-19
5.702E+03  1.859E-30  2.812E-19
5.649E+03  1.928E-30  2.890E-19
5.598E+03  2.000E-30  2.969E-19
5.546E+03  2.074E-30  3.051E-19
5.495E+03  2.151E-30  3.136E-19
5.445E+03  2.231E-30  3.222E-19
5.395E+03  2.314E-30  3.311E-19
5.346E+03  2.400E-30  3.403E-19
5.297E+03  2.489E-30  3.498E-19
5.248E+03  2.582E-30  3.594E-19
5.200E+03  2.678E-30  3.694E-19
5.152E+03  2.778E-30  3.797E-19
5.105E+03  2.882E-30  3.902E-19
5.058E+03  2.989E-30  4.011E-19
5.012E+03  3.101E-30  4.123E-19
4.966E+03  3.217E-30  4.237E-19
4.920E+03  3.337E-30  4.355E-19
4.875E+03  3.462E-30  4.477E-19
4.831E+03  3.591E-30  4.601E-19
4.786E+03  3.725E-30  4.730E-19
4.742E+03  3.865E-30  4.862E-19
4.699E+03  4.010E-30  4.998E-19
4.656E+03  4.160E-30  5.138E-19
4.613E+03  4.316E-30  5.282E-19
4.571E+03  4.478E-30  5.430E-19
4.529E+03  4.647E-30  5.582E-19
4.487E+03  4.821E-30  5.739E-19
4.446E+03  5.003E-30  5.900E-19
4.406E+03  5.191E-30  6.066E-19
4.365E+03  5.387E-30  6.237E-19
4.325E+03  5.590E-30  6.413E-19
4.285E+03  5.800E-30  6.594E-19
4.246E+03  6.019E-30  6.780E-19
4.207E+03  6.247E-30  6.971E-19
4.169E+03  6.483E-30  7.168E-19
4.130E+03  6.728E-30  7.371E-19
4.093E+03  6.982E-30  7.580E-19
4.055E+03  7.247E-30  7.795E-19
4.018E+03  7.521E-30  8.016E-19
3.981E+03  7.806E-30  8.243E-19
3.945E+03  8.101E-30  8.476E-19
3.908E+03  8.408E-30  8.717E-19
3.873E+03  8.726E-30  8.964E-19
3.837E+03  9.057E-30  9.219E-19
3.802E+03  9.401E-30  9.481E-19
3.767E+03  9.758E-30  9.751E-19
3.733E+03  1.013E-29  1.003E-18
3.698E+03  1.051E-29  1.031E-18
3.664E+03  1.091E-29  1.061E-18
3.631E+03  1.133E-29  1.091E-18
3.597E+03  1.176E-29  1.122E-18
3.565E+03  1.221E-29  1.155E-18
3.532E+03  1.268E-29  1.188E-18
3.499E+03  1.316E-29  1.222E-18
3.467E+03  1.366E-29  1.257E-18
3.436E+03  1.419E-29  1.293E-18
3.404E+03  1.473E-29  1.330E-18
3.373E+03  1.529E-29  1.368E-18
3.342E+03  1.588E-29  1.408E-18
3.311E+03  1.649E-29  1.448E-18
3.281E+03  1.712E-29  1.490E-18
3.251E+03  1.778E-29  1.533E-18
3.221E+03  1.846E-29  1.578E-18
3.192E+03  1.917E-29  1.623E-18
3.162E+03  1.991E-29  1.670E-18
3.133E+03  2.068E-29  1.719E-18
3.105E+03  2.148E-29  1.769E-18
3.076E+03  2.230E-29  1.820E-18
3.048E+03  2.316E-29  1.873E-18
3.020E+03  2.406E-29  1.927E-18
2.992E+03  2.499E-29  1.983E-18
2.965E+03  2.595E-29  2.041E-18
2.938E+03  2.695E-29  2.100E-18
2.911E+03  2.799E-29  2.161E-18
2.884E+03  2.907E-29  2.224E-18
2.858E+03  3.019E-29  2.288E-18
2.831E+03  3.135E-29  2.355E-18
2.805E+03  3.257E-29  2.423E-18
2.780E+03  3.383E-29  2.494E-18
2.754E+03  3.513E-29  2.567E-18
2.729E+03  3.650E-29  2.642E-18
2.704E+03  3.791E-29  2.719E-18
2.679E+03  3.938E-29  2.799E-18
2.655E+03  4.091E-29  2.881E-18
2.630E+03  4.250E-29  2.965E-18
2.606E+03  4.415E-29  3.052E-18
2.582E+03  4.586E-29  3.141E-18
2.559E+03  4.765E-29  3.234E-18
2.535E+03  4.950E-29  3.329E-18
2.512E+03  5.143E-29  3.427E-18
2.489E+03  5.343E-29  3.528E-18
2.466E+03  5.552E-29  3.632E-18
2.443E+03  5.768E-29  3.739E-18
2.421E+03  5.993E-29  3.849E-18
2.399E+03  6.227E-29  3.962E-18
2.377E+03  6.470E-29  4.079E-18
2.355E+03  6.723E-29  4.200E-18
2.333E+03  6.986E-29  4.324E-18
2.312E+03  7.260E-29  4.452E-18
2.291E+03  7.544E-29  4.584E-18
2.270E+03  7.839E-29  4.720E-18
2.249E+03  8.146E-29  4.860E-18
2.228E+03  8.465E-29  5.004E-18
2.208E+03  8.797E-29  5.152E-18
2.188E+03  9.142E-29  5.305E-18
2.168E+03  9.501E-29  5.463E-18
2.148E+03  9.874E-29  5.625E-18
2.128E+03  1.026E-28  5.792E-18
2.109E+03  1.066E-28  5.965E-18
2.089E+03  1.108E-28  6.142E-18
2.070E+03  1.152E-28  6.325E-18
2.051E+03  1.197E-28  6.513E-18
2.032E+03  1.244E-28  6.707E-18
2.014E+03  1.293E-28  6.907E-18
1.995E+03  1.344E-28  7.113E-18
1.977E+03  1.397E-28  7.325E-18
1.959E+03  1.452E-28  7.543E-18
1.941E+03  1.509E-28  7.768E-18
1.923E+03  1.568E-28  8.000E-18
1.905E+03  1.630E-28  8.239E-18
1.888E+03  1.694E-28  8.485E-18
1.871E+03  1.761E-28  8.738E-18
1.854E+03  1.830E-28  8.999E-18
1.837E+03  1.902E-28  9.268E-18
1.820E+03  1.977E-28  9.545E-18
1.803E+03  2.055E-28  9.830E-18
1.786E+03  2.136E-28  1.012E-17
1.770E+03  2.221E-28  1.043E-17
1.754E+03  2.308E-28  1.074E-17
1.738E+03  2.399E-28  1.106E-17
1.722E+03  2.494E-28  1.139E-17
1.706E+03  2.592E-28  1.173E-17
1.690E+03  2.695E-28  1.208E-17
1.675E+03  2.801E-28  1.244E-17
1.660E+03  2.912E-28  1.282E-17
1.644E+03  3.027E-28  1.320E-17
1.629E+03  3.146E-28  1.360E-17
1.614E+03  3.270E-28  1.400E-17
1.600E+03  3.399E-28  1.442E-17
1.585E+03  3.533E-28  1.485E-17
1.570E+03  3.673E-28  1.530E-17
1.556E+03  3.818E-28  1.576E-17
1.542E+03  3.968E-28  1.623E-17
1.528E+03  4.125E-28  1.671E-17
1.514E+03  4.288E-28  1.721E-17
1.500E+03  4.457E-28  1.773E-17
1.486E+03  4.633E-28  1.826E-17
1.472E+03  4.816E-28  1.881E-17
1.459E+03  5.006E-28  1.937E-17
1.445E+03  5.204E-28  1.995E-17
1.432E+03  5.409E-28  2.055E-17
1.419E+03  5.623E-28  2.116E-17
1.406E+03  5.845E-28  2.180E-17
1.393E+03  6.075E-28  2.245E-17
1.380E+03  6.315E-28  2.312E-17
1.368E+03  6.564E-28  2.381E-17
1.355E+03  6.823E-28  2.453E-17
1.343E+03  7.092E-28  2.526E-17
1.330E+03  7.372E-28  2.602E-17
1.318E+03  7.662E-28  2.679E-17
1.306E+03  7.964E-28  2.759E-17
1.294E+03  8.278E-28  2.842E-17
1.282E+03  8.604E-28  2.927E-17
1.271E+03  8.943E-28  3.014E-17
1.259E+03  9.295E-28  3.104E-17
1.247E+03  9.661E-28  3.197E-17
1.236E+03  1.004E-27  3.292E-17
1.225E+03  1.044E-27  3.390E-17
1.213E+03  1.085E-27  3.491E-17
1.202E+03  1.127E-27  3.595E-17
1.191E+03  1.171E-27  3.702E-17
1.180E+03  1.217E-27  3.812E-17
1.169E+03  1.265E-27  3.925E-17
1.159E+03  1.315E-27  4.041E-17
1.148E+03  1.366E-27  4.161E-17
1.138E+03  1.420E-27  4.285E-17
1.127E+03  1.475E-27  4.412E-17
1.117E+03  1.533E-27  4.542E-17
1.107E+03  1.593E-27  4.677E-17
1.096E+03  1.655E-27  4.815E-17
1.086E+03  1.720E-27  4.957E-17
1.076E+03  1.787E-27  5.103E-17
1.067E+03  1.857E-27  5.254E-17
1.057E+03  1.929E-27  5.409E-17
1.047E+03  2.005E-27  5.568E-17
1.038E+03  2.083E-27  5.732E-17
1.028E+03  2.164E-27  5.900E-17
1.019E+03  2.248E-27  6.073E-17
1.009E+03  2.335E-27  6.251E-17
1.000E+03  2.426E-27  6.434E-17
9.908E+02  2.520E-27  6.623E-17
9.817E+02  2.618E-27  6.817E-17
9.727E+02  2.720E-27  7.017E-17
9.638E+02  2.825E-27  7.223E-17
9.550E+02  2.935E-27  7.434E-17
9.462E+02  3.048E-27  7.651E-17
9.376E+02  3.166E-27  7.874E-17
9.290E+02  3.289E-27  8.103E-17
9.204E+02  3.416E-27  8.339E-17
9.120E+02  3.547E-27  8.582E-17
9.036E+02  3.684E-27  8.831E-17
8.954E+02  3.826E-27  9.087E-17
8.872E+02  3.973E-27  9.350E-17
8.790E+02  4.126E-27  9.620E-17
8.710E+02  4.284E-27  9.897E-17
8.630E+02  4.448E-27  1.018E-16
8.551E+02  4.618E-27  1.048E-16
8.472E+02  4.795E-27  1.078E-16
8.395E+02  4.978E-27  1.108E-16
8.318E+02  5.168E-27  1.140E-16
8.241E+02  5.365E-27  1.173E-16
8.166E+02  5.569E-27  1.206E-16
8.091E+02  5.780E-27  1.241E-16
8.017E+02  5.999E-27  1.276E-16
7.943E+02  6.227E-27  1.312E-16
7.870E+02  6.462E-27  1.349E-16
7.798E+02  6.707E-27  1.387E-16
7.727E+02  6.960E-27  1.426E-16
7.656E+02  7.222E-27  1.467E-16
7.586E+02  7.494E-27  1.508E-16
7.516E+02  7.776E-27  1.550E-16
7.447E+02  8.069E-27  1.594E-16
7.379E+02  8.373E-27  1.639E-16
7.311E+02  8.689E-27  1.685E-16
7.244E+02  9.016E-27  1.732E-16
7.178E+02  9.355E-27  1.781E-16
7.112E+02  9.706E-27  1.831E-16
7.047E+02  1.007E-26  1.883E-16
6.982E+02  1.045E-26  1.935E-16
6.918E+02  1.084E-26  1.990E-16
6.855E+02  1.125E-26  2.045E-16
6.792E+02  1.167E-26  2.102E-16
6.730E+02  1.211E-26  2.161E-16
6.668E+02  1.256E-26  2.221E-16
6.607E+02  1.302E-26  2.283E-16
6.546E+02  1.351E-26  2.346E-16
6.486E+02  1.402E-26  2.412E-16
6.427E+02  1.454E-26  2.479E-16
6.368E+02  1.509E-26  2.549E-16
6.310E+02  1.565E-26  2.620E-16
6.252E+02  1.624E-26  2.693E-16
6.194E+02  1.684E-26  2.768E-16
6.138E+02  1.747E-26  2.845E-16
6.081E+02  1.813E-26  2.924E-16
6.026E+02  1.880E-26  3.005E-16
5.970E+02  1.951E-26  3.089E-16
5.916E+02  2.023E-26  3.175E-16
5.861E+02  2.099E-26  3.263E-16
5.808E+02  2.177E-26  3.354E-16
5.754E+02  2.258E-26  3.447E-16
5.702E+02  2.342E-26  3.542E-16
5.649E+02  2.429E-26  3.641E-16
5.598E+02  2.520E-26  3.741E-16
5.546E+02  2.614E-26  3.845E-16
5.495E+02  2.711E-26  3.951E-16
5.445E+02  2.811E-26  4.061E-16
5.395E+02  2.916E-26  4.173E-16
5.346E+02  3.024E-26  4.288E-16
5.297E+02  3.136E-26  4.406E-16
5.248E+02  3.252E-26  4.528E-16
5.200E+02  3.373E-26  4.652E-16
5.152E+02  3.498E-26  4.781E-16
5.105E+02  3.627E-26  4.912E-16
5.058E+02  3.761E-26  5.047E-16
5.012E+02  3.900E-26  5.185E-16
4.966E+02  4.044E-26  5.327E-16
4.920E+02  4.193E-26  5.473E-16
4.875E+02  4.348E-26  5.623E-16
4.831E+02  4.508E-26  5.777E-16
4.786E+02  4.674E-26  5.934E-16
4.742E+02  4.846E-26  6.096E-16
4.699E+02  5.023E-26  6.261E-16
4.656E+02  5.208E-26  6.431E-16
4.613E+02  5.398E-26  6.606E-16
4.571E+02  5.596E-26  6.785E-16
4.529E+02  5.801E-26  6.969E-16
4.487E+02  6.012E-26  7.157E-16
4.446E+02  6.232E-26  7.350E-16
4.406E+02  6.459E-26  7.548E-16
4.365E+02  6.694E-26  7.750E-16
4.325E+02  6.937E-26  7.958E-16
4.285E+02  7.189E-26  8.172E-16
4.246E+02  7.449E-26  8.390E-16
4.207E+02  7.719E-26  8.614E-16
4.169E+02  7.998E-26  8.844E-16
4.130E+02  8.286E-26  9.078E-16
4.093E+02  8.585E-26  9.320E-16
4.055E+02  8.895E-26  9.567E-16
4.018E+02  9.215E-26  9.821E-16
3.981E+02  9.545E-26  1.008E-15
3.945E+02  9.888E-26  1.035E-15
3.908E+02  1.024E-25  1.062E-15
3.873E+02  1.061E-25  1.090E-15
3.837E+02  1.099E-25  1.119E-15
3.802E+02  1.138E-25  1.148E-15
3.767E+02  1.179E-25  1.178E-15
3.733E+02  1.221E-25  1.208E-15
3.698E+02  1.264E-25  1.240E-15
3.664E+02  1.309E-25  1.272E-15
3.631E+02  1.355E-25  1.305E-15
3.597E+02  1.403E-25  1.339E-15
3.565E+02  1.452E-25  1.373E-15
3.532E+02  1.503E-25  1.408E-15
3.499E+02  1.556E-25  1.444E-15
3.467E+02  1.610E-25  1.481E-15
3.436E+02  1.667E-25  1.519E-15
3.404E+02  1.725E-25  1.557E-15
3.373E+02  1.785E-25  1.597E-15
3.342E+02  1.847E-25  1.637E-15
3.311E+02  1.911E-25  1.678E-15
3.281E+02  1.977E-25  1.720E-15
3.251E+02  2.045E-25  1.763E-15
3.221E+02  2.115E-25  1.807E-15
3.192E+02  2.187E-25  1.852E-15
3.162E+02  2.262E-25  1.897E-15
3.133E+02  2.339E-25  1.944E-15
3.105E+02  2.418E-25  1.991E-15
3.076E+02  2.500E-25  2.040E-15
3.048E+02  2.584E-25  2.090E-15
3.020E+02  2.672E-25  2.140E-15
2.992E+02  2.761E-25  2.192E-15
2.965E+02  2.853E-25  2.244E-15
2.938E+02  2.949E-25  2.298E-15
2.911E+02  3.047E-25  2.352E-15
2.884E+02  3.147E-25  2.408E-15
2.858E+02  3.251E-25  2.464E-15
2.831E+02  3.358E-25  2.522E-15
2.805E+02  3.468E-25  2.581E-15
2.780E+02  3.581E-25  2.640E-15
2.754E+02  3.697E-25  2.701E-15
2.729E+02  3.817E-25  2.763E-15
2.704E+02  3.941E-25  2.826E-15
2.679E+02  4.068E-25  2.891E-15
2.655E+02  4.199E-25  2.957E-15
2.630E+02  4.334E-25  3.024E-15
2.606E+02  4.472E-25  3.092E-15
2.582E+02  4.614E-25  3.161E-15
2.559E+02  4.759E-25  3.230E-15
2.535E+02  4.907E-25  3.300E-15
2.512E+02  5.058E-25  3.370E-15
2.489E+02  5.209E-25  3.439E-15
2.466E+02  5.360E-25  3.506E-15
2.443E+02  5.513E-25  3.573E-15
2.421E+02  5.668E-25  3.640E-15
2.399E+02  5.824E-25  3.706E-15
2.377E+02  5.981E-25  3.771E-15
2.355E+02  6.139E-25  3.835E-15
2.333E+02  6.301E-25  3.900E-15
2.312E+02  6.466E-25  3.965E-15
2.291E+02  6.633E-25  4.031E-15
2.270E+02  6.804E-25  4.097E-15
2.249E+02  6.977E-25  4.162E-15
2.228E+02  7.153E-25  4.228E-15
2.208E+02  7.333E-25  4.295E-15
2.188E+02  7.515E-25  4.361E-15
2.168E+02  7.700E-25  4.427E-15
2.148E+02  7.887E-25  4.494E-15
2.128E+02  8.078E-25  4.560E-15
2.109E+02  8.271E-25  4.626E-15
2.089E+02  8.466E-25  4.692E-15
2.070E+02  8.664E-25  4.757E-15
2.051E+02  8.863E-25  4.822E-15
2.032E+02  9.066E-25  4.888E-15
2.014E+02  9.271E-25  4.952E-15
1.995E+02  9.478E-25  5.017E-15
1.977E+02  9.688E-25  5.080E-15
1.959E+02  9.899E-25  5.143E-15
1.941E+02  1.011E-24  5.206E-15
1.923E+02  1.033E-24  5.268E-15
1.905E+02  1.054E-24  5.330E-15
1.888E+02  1.076E-24  5.390E-15
1.871E+02  1.098E-24  5.451E-15
1.854E+02  1.121E-24  5.510E-15
1.837E+02  1.143E-24  5.568E-15
1.820E+02  1.166E-24  5.626E-15
1.803E+02  1.188E-24  5.683E-15
1.786E+02  1.211E-24  5.739E-15
1.770E+02  1.234E-24  5.793E-15
1.754E+02  1.257E-24  5.847E-15
1.738E+02  1.280E-24  5.900E-15
1.722E+02  1.303E-24  5.951E-15
1.706E+02  1.326E-24  6.002E-15
1.690E+02  1.350E-24  6.052E-15
1.675E+02  1.373E-24  6.100E-15
1.660E+02  1.397E-24  6.148E-15
1.644E+02  1.420E-24  6.195E-15
1.629E+02  1.444E-24  6.240E-15
1.614E+02  1.468E-24  6.285E-15
1.600E+02  1.492E-24  6.330E-15
1.585E+02  1.516E-24  6.373E-15
1.570E+02  1.540E-24  6.416E-15
1.556E+02  1.565E-24  6.459E-15
1.542E+02  1.590E-24  6.502E-15
1.528E+02  1.615E-24  6.544E-15
1.514E+02  1.641E-24  6.587E-15
1.500E+02  1.667E-24  6.630E-15
1.486E+02  1.693E-24  6.674E-15
1.472E+02  1.720E-24  6.718E-15
1.459E+02  1.747E-24  6.762E-15
1.445E+02  1.775E-24  6.804E-15
1.432E+02  1.801E-24  6.842E-15
1.419E+02  1.826E-24  6.875E-15
1.406E+02  1.849E-24  6.898E-15
1.393E+02  1.870E-24  6.909E-15
1.380E+02  1.887E-24  6.908E-15
1.368E+02  1.901E-24  6.895E-15
1.355E+02  1.912E-24  6.872E-15
1.343E+02  1.921E-24  6.842E-15
1.330E+02  1.929E-24  6.807E-15
1.318E+02  1.936E-24  6.770E-15
1.306E+02  1.943E-24  6.731E-15
1.294E+02  1.950E-24  6.693E-15
1.282E+02  1.956E-24  6.654E-15
1.271E+02  1.963E-24  6.616E-15
1.259E+02  1.970E-24  6.577E-15
1.247E+02  1.976E-24  6.538E-15
1.236E+02  1.982E-24  6.498E-15
1.225E+02  1.988E-24  6.458E-15
1.213E+02  1.994E-24  6.417E-15
1.202E+02  1.999E-24  6.375E-15
1.191E+02  2.004E-24  6.332E-15
1.180E+02  2.008E-24  6.287E-15
1.169E+02  2.011E-24  6.240E-15
1.159E+02  2.014E-24  6.191E-15
1.148E+02  2.016E-24  6.141E-15
1.138E+02  2.018E-24  6.089E-15
1.127E+02  2.019E-24  6.036E-15
1.117E+02  2.019E-24  5.982E-15
1.107E+02  2.019E-24  5.926E-15
1.096E+02  2.018E-24  5.868E-15
1.086E+02  2.016E-24  5.809E-15
1.076E+02  2.013E-24  5.749E-15
1.067E+02  2.010E-24  5.687E-15
1.057E+02  2.006E-24  5.623E-15
1.047E+02  2.001E-24  5.558E-15
1.038E+02  1.995E-24  5.491E-15
1.028E+02  1.989E-24  5.423E-15
1.019E+02  1.981E-24  5.353E-15
1.009E+02  1.973E-24  5.281E-15
1.000E+02  1.964E-24  5.209E-15
9.908E+01  1.953E-24  5.134E-15
9.817E+01  1.943E-24  5.059E-15
9.727E+01  1.931E-24  4.982E-15
9.638E+01  1.918E-24  4.904E-15
9.550E+01  1.905E-24  4.825E-15
9.462E+01  1.891E-24  4.745E-15
9.376E+01  1.876E-24  4.665E-15
9.290E+01  1.860E-24  4.583E-15
9.204E+01  1.844E-24  4.501E-15
9.120E+01  1.826E-24  4.418E-15
9.036E+01  1.808E-24  4.335E-15
8.954E+01  1.790E-24  4.251E-15
8.872E+01  1.771E-24  4.167E-15
8.790E+01  1.751E-24  4.083E-15
8.710E+01  1.731E-24  3.998E-15
8.630E+01  1.710E-24  3.914E-15
8.551E+01  1.688E-24  3.830E-15
8.472E+01  1.666E-24  3.745E-15
8.395E+01  1.644E-24  3.660E-15
8.318E+01  1.621E-24  3.576E-15
8.241E+01  1.597E-24  3.491E-15
8.166E+01  1.573E-24  3.408E-15
8.091E+01  1.549E-24  3.324E-15
8.017E+01  1.524E-24  3.241E-15
7.943E+01  1.499E-24  3.159E-15
7.870E+01  1.474E-24  3.077E-15
7.798E+01  1.448E-24  2.995E-15
7.727E+01  1.422E-24  2.914E-15
7.656E+01  1.396E-24  2.834E-15
7.586E+01  1.369E-24  2.755E-15
7.516E+01  1.343E-24  2.677E-15
7.447E+01  1.316E-24  2.599E-15
7.379E+01  1.289E-24  2.523E-15
7.311E+01  1.262E-24  2.447E-15
7.244E+01  1.235E-24  2.372E-15
7.178E+01  1.207E-24  2.299E-15
7.112E+01  1.180E-24  2.227E-15
7.047E+01  1.153E-24  2.156E-15
6.982E+01  1.127E-24  2.086E-15
6.918E+01  1.100E-24  2.018E-15
6.855E+01  1.073E-24  1.951E-15
6.792E+01  1.046E-24  1.885E-15
6.730E+01  1.020E-24  1.821E-15
6.668E+01  9.938E-25  1.758E-15
6.607E+01  9.680E-25  1.696E-15
6.546E+01  9.424E-25  1.636E-15
6.486E+01  9.170E-25  1.578E-15
6.427E+01  8.919E-25  1.521E-15
6.368E+01  8.672E-25  1.465E-15
6.310E+01  8.429E-25  1.411E-15
6.252E+01  8.190E-25  1.358E-15
6.194E+01  7.954E-25  1.307E-15
6.138E+01  7.723E-25  1.257E-15
6.081E+01  7.496E-25  1.209E-15
6.026E+01  7.273E-25  1.163E-15
5.970E+01  7.055E-25  1.117E-15
5.916E+01  6.841E-25  1.073E-15
5.861E+01  6.631E-25  1.031E-15
5.808E+01  6.426E-25  9.899E-16
5.754E+01  6.226E-25  9.503E-16
5.702E+01  6.030E-25  9.120E-16
5.649E+01  5.840E-25  8.752E-16
5.598E+01  5.656E-25  8.398E-16
5.546E+01  5.476E-25  8.057E-16
5.495E+01  5.302E-25  7.729E-16
5.445E+01  5.133E-25  7.414E-16
5.395E+01  4.970E-25  7.112E-16
5.346E+01  4.812E-25  6.823E-16
5.297E+01  4.658E-25  6.544E-16
5.248E+01  4.510E-25  6.278E-16
5.200E+01  4.366E-25  6.023E-16
5.152E+01  4.228E-25  5.778E-16
5.105E+01  4.094E-25  5.544E-16
5.058E+01  3.965E-25  5.320E-16
5.012E+01  3.841E-25  5.107E-16
4.966E+01  3.722E-25  4.902E-16
