Dust emission from Draine & Li (2007): ApJ 657, 810-837
================================================================
        10 = grain model
 4.000E-08 4.000E-01 5.000E-06 = a_01 (cm) , sigma_1 , b_C1/0.92
 2.500E-07 4.000E-01 5.000E-06 = a_02 (cm) , sigma_2 , b_C2/0.92
 4.000E+00 4.000E+00 1.000E+00 = Umin , Umax, beta (dN/dU propto U^{-beta})
 4.000E+00 = <U> 
     mmp83 = radfield
 4.183E-24 = power/H (erg s-1)
 band   nu*P_nu(band) j_nu(band)
 (um)   (erg s-1 H-1)(Jy cm2 sr-1 H-1)
1.270E+00  1.162E-26  3.914E-19 COBE-DIRBE
2.220E+00  1.558E-26  9.175E-19 COBE-DIRBE
3.530E+00  8.203E-26  7.681E-18 COBE-DIRBE
4.880E+00  3.946E-26  5.108E-18 COBE-DIRBE
1.229E+01  3.749E-25  1.222E-16 COBE-DIRBE
2.079E+01  3.956E-25  2.182E-16 COBE-DIRBE
5.599E+01  1.253E-24  1.860E-15 COBE-DIRBE
9.770E+01  2.505E-24  6.492E-15 COBE-DIRBE
1.479E+02  2.059E-24  8.078E-15 COBE-DIRBE
2.479E+02  6.831E-25  4.491E-15 COBE-DIRBE
1.200E+01  3.867E-25  1.231E-16 IRAS
2.500E+01  3.998E-25  2.651E-16 IRAS
6.000E+01  1.400E-24  2.228E-15 IRAS
1.000E+02  2.530E-24  6.711E-15 IRAS
3.550E+00  9.477E-26  8.925E-18 SST-IRAC
4.493E+00  2.890E-26  3.444E-18 SST-IRAC
5.731E+00  2.145E-25  3.261E-17 SST-IRAC
7.872E+00  5.171E-25  1.080E-16 SST-IRAC
2.368E+01  3.670E-25  2.305E-16 SST-MIPS
7.142E+01  1.720E-24  3.259E-15 SST-MIPS
1.559E+02  1.827E-24  7.557E-15 SST-MIPS
1.600E+01  3.340E-25  1.418E-16 SST-IRSPU
2.200E+01  3.788E-25  2.211E-16 SST-IRSPU











lambda    nu*dP/dnu     j_nu
 (um)   (erg s-1 H-1)(Jy cm2 sr-1 H-1)
1.000E+04  2.300E-31  6.100E-20
9.908E+03  2.383E-31  6.264E-20
9.817E+03  2.470E-31  6.432E-20
9.727E+03  2.560E-31  6.605E-20
9.638E+03  2.653E-31  6.783E-20
9.550E+03  2.750E-31  6.965E-20
9.462E+03  2.850E-31  7.153E-20
9.376E+03  2.953E-31  7.345E-20
9.290E+03  3.061E-31  7.543E-20
9.204E+03  3.172E-31  7.746E-20
9.120E+03  3.288E-31  7.954E-20
9.036E+03  3.408E-31  8.168E-20
8.954E+03  3.531E-31  8.387E-20
8.872E+03  3.659E-31  8.610E-20
8.790E+03  3.791E-31  8.840E-20
8.710E+03  3.929E-31  9.077E-20
8.630E+03  4.071E-31  9.319E-20
8.551E+03  4.219E-31  9.569E-20
8.472E+03  4.372E-31  9.825E-20
8.395E+03  4.531E-31  1.009E-19
8.318E+03  4.695E-31  1.036E-19
8.241E+03  4.866E-31  1.064E-19
8.166E+03  5.043E-31  1.092E-19
8.091E+03  5.226E-31  1.122E-19
8.017E+03  5.417E-31  1.152E-19
7.943E+03  5.614E-31  1.183E-19
7.870E+03  5.819E-31  1.215E-19
7.798E+03  6.031E-31  1.248E-19
7.727E+03  6.251E-31  1.281E-19
7.656E+03  6.480E-31  1.316E-19
7.586E+03  6.716E-31  1.351E-19
7.516E+03  6.962E-31  1.388E-19
7.447E+03  7.217E-31  1.426E-19
7.379E+03  7.481E-31  1.464E-19
7.311E+03  7.755E-31  1.504E-19
7.244E+03  8.039E-31  1.545E-19
7.178E+03  8.334E-31  1.587E-19
7.112E+03  8.640E-31  1.630E-19
7.047E+03  8.957E-31  1.674E-19
6.982E+03  9.286E-31  1.720E-19
6.918E+03  9.626E-31  1.767E-19
6.855E+03  9.979E-31  1.815E-19
6.792E+03  1.035E-30  1.864E-19
6.730E+03  1.073E-30  1.915E-19
6.668E+03  1.112E-30  1.967E-19
6.607E+03  1.153E-30  2.021E-19
6.546E+03  1.195E-30  2.076E-19
6.486E+03  1.239E-30  2.132E-19
6.427E+03  1.285E-30  2.191E-19
6.368E+03  1.332E-30  2.251E-19
6.310E+03  1.382E-30  2.312E-19
6.252E+03  1.433E-30  2.376E-19
6.194E+03  1.486E-30  2.441E-19
6.138E+03  1.540E-30  2.508E-19
6.081E+03  1.597E-30  2.577E-19
6.026E+03  1.657E-30  2.648E-19
5.970E+03  1.718E-30  2.721E-19
5.916E+03  1.782E-30  2.796E-19
5.861E+03  1.848E-30  2.873E-19
5.808E+03  1.916E-30  2.952E-19
5.754E+03  1.987E-30  3.033E-19
5.702E+03  2.061E-30  3.117E-19
5.649E+03  2.138E-30  3.203E-19
5.598E+03  2.217E-30  3.292E-19
5.546E+03  2.300E-30  3.383E-19
5.495E+03  2.385E-30  3.477E-19
5.445E+03  2.474E-30  3.573E-19
5.395E+03  2.566E-30  3.672E-19
5.346E+03  2.662E-30  3.774E-19
5.297E+03  2.761E-30  3.879E-19
5.248E+03  2.864E-30  3.987E-19
5.200E+03  2.971E-30  4.098E-19
5.152E+03  3.082E-30  4.212E-19
5.105E+03  3.197E-30  4.330E-19
5.058E+03  3.317E-30  4.450E-19
5.012E+03  3.441E-30  4.574E-19
4.966E+03  3.570E-30  4.702E-19
4.920E+03  3.703E-30  4.833E-19
4.875E+03  3.842E-30  4.968E-19
4.831E+03  3.986E-30  5.107E-19
4.786E+03  4.135E-30  5.250E-19
4.742E+03  4.290E-30  5.397E-19
4.699E+03  4.451E-30  5.548E-19
4.656E+03  4.618E-30  5.704E-19
4.613E+03  4.792E-30  5.864E-19
4.571E+03  4.972E-30  6.029E-19
4.529E+03  5.159E-30  6.198E-19
4.487E+03  5.353E-30  6.372E-19
4.446E+03  5.555E-30  6.552E-19
4.406E+03  5.764E-30  6.736E-19
4.365E+03  5.982E-30  6.926E-19
4.325E+03  6.208E-30  7.122E-19
4.285E+03  6.442E-30  7.323E-19
4.246E+03  6.685E-30  7.530E-19
4.207E+03  6.938E-30  7.743E-19
4.169E+03  7.200E-30  7.962E-19
4.130E+03  7.473E-30  8.187E-19
4.093E+03  7.756E-30  8.419E-19
4.055E+03  8.049E-30  8.658E-19
4.018E+03  8.354E-30  8.904E-19
3.981E+03  8.671E-30  9.157E-19
3.945E+03  8.999E-30  9.416E-19
3.908E+03  9.340E-30  9.683E-19
3.873E+03  9.694E-30  9.958E-19
3.837E+03  1.006E-29  1.024E-18
3.802E+03  1.044E-29  1.053E-18
3.767E+03  1.084E-29  1.083E-18
3.733E+03  1.125E-29  1.114E-18
3.698E+03  1.168E-29  1.146E-18
3.664E+03  1.213E-29  1.179E-18
3.631E+03  1.259E-29  1.212E-18
3.597E+03  1.307E-29  1.247E-18
3.565E+03  1.357E-29  1.283E-18
3.532E+03  1.408E-29  1.319E-18
3.499E+03  1.462E-29  1.357E-18
3.467E+03  1.518E-29  1.396E-18
3.436E+03  1.576E-29  1.436E-18
3.404E+03  1.637E-29  1.478E-18
3.373E+03  1.699E-29  1.520E-18
3.342E+03  1.764E-29  1.564E-18
3.311E+03  1.832E-29  1.609E-18
3.281E+03  1.902E-29  1.656E-18
3.251E+03  1.975E-29  1.703E-18
3.221E+03  2.051E-29  1.753E-18
3.192E+03  2.130E-29  1.803E-18
3.162E+03  2.212E-29  1.855E-18
3.133E+03  2.297E-29  1.909E-18
3.105E+03  2.385E-29  1.964E-18
3.076E+03  2.477E-29  2.021E-18
3.048E+03  2.573E-29  2.080E-18
3.020E+03  2.672E-29  2.140E-18
2.992E+03  2.775E-29  2.202E-18
2.965E+03  2.882E-29  2.266E-18
2.938E+03  2.992E-29  2.332E-18
2.911E+03  3.108E-29  2.399E-18
2.884E+03  3.227E-29  2.469E-18
2.858E+03  3.352E-29  2.541E-18
2.831E+03  3.481E-29  2.615E-18
2.805E+03  3.616E-29  2.691E-18
2.780E+03  3.755E-29  2.769E-18
2.754E+03  3.901E-29  2.850E-18
2.729E+03  4.051E-29  2.933E-18
2.704E+03  4.208E-29  3.018E-18
2.679E+03  4.371E-29  3.106E-18
2.655E+03  4.540E-29  3.197E-18
2.630E+03  4.717E-29  3.291E-18
2.606E+03  4.899E-29  3.387E-18
2.582E+03  5.090E-29  3.486E-18
2.559E+03  5.287E-29  3.588E-18
2.535E+03  5.493E-29  3.694E-18
2.512E+03  5.706E-29  3.802E-18
2.489E+03  5.928E-29  3.914E-18
2.466E+03  6.159E-29  4.029E-18
2.443E+03  6.399E-29  4.147E-18
2.421E+03  6.648E-29  4.269E-18
2.399E+03  6.907E-29  4.395E-18
2.377E+03  7.176E-29  4.524E-18
2.355E+03  7.456E-29  4.658E-18
2.333E+03  7.747E-29  4.795E-18
2.312E+03  8.050E-29  4.937E-18
2.291E+03  8.364E-29  5.083E-18
2.270E+03  8.691E-29  5.233E-18
2.249E+03  9.031E-29  5.388E-18
2.228E+03  9.384E-29  5.547E-18
2.208E+03  9.751E-29  5.711E-18
2.188E+03  1.013E-28  5.880E-18
2.168E+03  1.053E-28  6.054E-18
2.148E+03  1.094E-28  6.234E-18
2.128E+03  1.137E-28  6.419E-18
2.109E+03  1.182E-28  6.609E-18
2.089E+03  1.228E-28  6.805E-18
2.070E+03  1.276E-28  7.007E-18
2.051E+03  1.326E-28  7.216E-18
2.032E+03  1.378E-28  7.430E-18
2.014E+03  1.432E-28  7.651E-18
1.995E+03  1.489E-28  7.878E-18
1.977E+03  1.547E-28  8.112E-18
1.959E+03  1.608E-28  8.353E-18
1.941E+03  1.671E-28  8.602E-18
1.923E+03  1.736E-28  8.858E-18
1.905E+03  1.805E-28  9.121E-18
1.888E+03  1.876E-28  9.393E-18
1.871E+03  1.949E-28  9.673E-18
1.854E+03  2.026E-28  9.961E-18
1.837E+03  2.106E-28  1.026E-17
1.820E+03  2.189E-28  1.056E-17
1.803E+03  2.275E-28  1.088E-17
1.786E+03  2.364E-28  1.120E-17
1.770E+03  2.457E-28  1.154E-17
1.754E+03  2.554E-28  1.188E-17
1.738E+03  2.655E-28  1.224E-17
1.722E+03  2.759E-28  1.260E-17
1.706E+03  2.868E-28  1.298E-17
1.690E+03  2.981E-28  1.337E-17
1.675E+03  3.099E-28  1.377E-17
1.660E+03  3.221E-28  1.418E-17
1.644E+03  3.348E-28  1.460E-17
1.629E+03  3.480E-28  1.504E-17
1.614E+03  3.617E-28  1.549E-17
1.600E+03  3.759E-28  1.595E-17
1.585E+03  3.908E-28  1.643E-17
1.570E+03  4.062E-28  1.692E-17
1.556E+03  4.222E-28  1.742E-17
1.542E+03  4.388E-28  1.795E-17
1.528E+03  4.561E-28  1.848E-17
1.514E+03  4.741E-28  1.903E-17
1.500E+03  4.928E-28  1.960E-17
1.486E+03  5.122E-28  2.019E-17
1.472E+03  5.324E-28  2.079E-17
1.459E+03  5.534E-28  2.142E-17
1.445E+03  5.753E-28  2.206E-17
1.432E+03  5.980E-28  2.272E-17
1.419E+03  6.216E-28  2.340E-17
1.406E+03  6.461E-28  2.410E-17
1.393E+03  6.716E-28  2.482E-17
1.380E+03  6.981E-28  2.556E-17
1.368E+03  7.256E-28  2.633E-17
1.355E+03  7.543E-28  2.711E-17
1.343E+03  7.840E-28  2.792E-17
1.330E+03  8.149E-28  2.876E-17
1.318E+03  8.471E-28  2.962E-17
1.306E+03  8.804E-28  3.050E-17
1.294E+03  9.151E-28  3.142E-17
1.282E+03  9.512E-28  3.235E-17
1.271E+03  9.887E-28  3.332E-17
1.259E+03  1.028E-27  3.432E-17
1.247E+03  1.068E-27  3.534E-17
1.236E+03  1.110E-27  3.639E-17
1.225E+03  1.154E-27  3.748E-17
1.213E+03  1.199E-27  3.860E-17
1.202E+03  1.246E-27  3.975E-17
1.191E+03  1.295E-27  4.093E-17
1.180E+03  1.346E-27  4.215E-17
1.169E+03  1.399E-27  4.340E-17
1.159E+03  1.454E-27  4.469E-17
1.148E+03  1.511E-27  4.602E-17
1.138E+03  1.570E-27  4.739E-17
1.127E+03  1.632E-27  4.880E-17
1.117E+03  1.696E-27  5.024E-17
1.107E+03  1.762E-27  5.174E-17
1.096E+03  1.831E-27  5.327E-17
1.086E+03  1.903E-27  5.485E-17
1.076E+03  1.978E-27  5.647E-17
1.067E+03  2.055E-27  5.814E-17
1.057E+03  2.135E-27  5.986E-17
1.047E+03  2.219E-27  6.163E-17
1.038E+03  2.305E-27  6.344E-17
1.028E+03  2.395E-27  6.532E-17
1.019E+03  2.489E-27  6.724E-17
1.009E+03  2.586E-27  6.922E-17
1.000E+03  2.686E-27  7.125E-17
9.908E+02  2.791E-27  7.335E-17
9.817E+02  2.900E-27  7.551E-17
9.727E+02  3.013E-27  7.773E-17
9.638E+02  3.130E-27  8.002E-17
9.550E+02  3.251E-27  8.237E-17
9.462E+02  3.378E-27  8.478E-17
9.376E+02  3.509E-27  8.727E-17
9.290E+02  3.645E-27  8.982E-17
9.204E+02  3.787E-27  9.245E-17
9.120E+02  3.933E-27  9.515E-17
9.036E+02  4.085E-27  9.793E-17
8.954E+02  4.243E-27  1.008E-16
8.872E+02  4.407E-27  1.037E-16
8.790E+02  4.577E-27  1.067E-16
8.710E+02  4.754E-27  1.098E-16
8.630E+02  4.937E-27  1.130E-16
8.551E+02  5.126E-27  1.163E-16
8.472E+02  5.323E-27  1.196E-16
8.395E+02  5.527E-27  1.231E-16
8.318E+02  5.739E-27  1.266E-16
8.241E+02  5.959E-27  1.303E-16
8.166E+02  6.187E-27  1.340E-16
8.091E+02  6.423E-27  1.378E-16
8.017E+02  6.668E-27  1.418E-16
7.943E+02  6.922E-27  1.458E-16
7.870E+02  7.185E-27  1.500E-16
7.798E+02  7.458E-27  1.543E-16
7.727E+02  7.742E-27  1.587E-16
7.656E+02  8.035E-27  1.632E-16
7.586E+02  8.340E-27  1.678E-16
7.516E+02  8.656E-27  1.726E-16
7.447E+02  8.984E-27  1.775E-16
7.379E+02  9.324E-27  1.825E-16
7.311E+02  9.677E-27  1.877E-16
7.244E+02  1.004E-26  1.930E-16
7.178E+02  1.042E-26  1.985E-16
7.112E+02  1.082E-26  2.041E-16
7.047E+02  1.123E-26  2.099E-16
6.982E+02  1.165E-26  2.158E-16
6.918E+02  1.209E-26  2.219E-16
6.855E+02  1.255E-26  2.282E-16
6.792E+02  1.302E-26  2.346E-16
6.730E+02  1.351E-26  2.412E-16
6.668E+02  1.402E-26  2.480E-16
6.607E+02  1.455E-26  2.549E-16
6.546E+02  1.509E-26  2.621E-16
6.486E+02  1.566E-26  2.695E-16
6.427E+02  1.625E-26  2.771E-16
6.368E+02  1.687E-26  2.849E-16
6.310E+02  1.750E-26  2.929E-16
6.252E+02  1.816E-26  3.012E-16
6.194E+02  1.885E-26  3.096E-16
6.138E+02  1.955E-26  3.184E-16
6.081E+02  2.029E-26  3.273E-16
6.026E+02  2.105E-26  3.365E-16
5.970E+02  2.184E-26  3.460E-16
5.916E+02  2.267E-26  3.557E-16
5.861E+02  2.352E-26  3.656E-16
5.808E+02  2.440E-26  3.759E-16
5.754E+02  2.532E-26  3.864E-16
5.702E+02  2.627E-26  3.972E-16
5.649E+02  2.725E-26  4.084E-16
5.598E+02  2.827E-26  4.198E-16
5.546E+02  2.933E-26  4.315E-16
5.495E+02  3.043E-26  4.436E-16
5.445E+02  3.157E-26  4.560E-16
5.395E+02  3.275E-26  4.687E-16
5.346E+02  3.397E-26  4.818E-16
5.297E+02  3.525E-26  4.952E-16
5.248E+02  3.656E-26  5.090E-16
5.200E+02  3.793E-26  5.231E-16
5.152E+02  3.934E-26  5.377E-16
5.105E+02  4.081E-26  5.526E-16
5.058E+02  4.233E-26  5.680E-16
5.012E+02  4.391E-26  5.837E-16
4.966E+02  4.554E-26  5.999E-16
4.920E+02  4.723E-26  6.165E-16
4.875E+02  4.899E-26  6.335E-16
4.831E+02  5.080E-26  6.510E-16
4.786E+02  5.269E-26  6.689E-16
4.742E+02  5.464E-26  6.873E-16
4.699E+02  5.666E-26  7.062E-16
4.656E+02  5.876E-26  7.256E-16
4.613E+02  6.093E-26  7.455E-16
4.571E+02  6.317E-26  7.660E-16
4.529E+02  6.550E-26  7.869E-16
4.487E+02  6.791E-26  8.084E-16
4.446E+02  7.041E-26  8.304E-16
4.406E+02  7.300E-26  8.531E-16
4.365E+02  7.567E-26  8.762E-16
4.325E+02  7.845E-26  9.000E-16
4.285E+02  8.132E-26  9.244E-16
4.246E+02  8.429E-26  9.494E-16
4.207E+02  8.737E-26  9.750E-16
4.169E+02  9.056E-26  1.001E-15
4.130E+02  9.385E-26  1.028E-15
4.093E+02  9.727E-26  1.056E-15
4.055E+02  1.008E-25  1.084E-15
4.018E+02  1.045E-25  1.113E-15
3.981E+02  1.082E-25  1.143E-15
3.945E+02  1.122E-25  1.174E-15
3.908E+02  1.162E-25  1.205E-15
3.873E+02  1.204E-25  1.237E-15
3.837E+02  1.248E-25  1.270E-15
3.802E+02  1.293E-25  1.304E-15
3.767E+02  1.339E-25  1.338E-15
3.733E+02  1.387E-25  1.373E-15
3.698E+02  1.437E-25  1.410E-15
3.664E+02  1.488E-25  1.447E-15
3.631E+02  1.541E-25  1.484E-15
3.597E+02  1.596E-25  1.523E-15
3.565E+02  1.653E-25  1.563E-15
3.532E+02  1.712E-25  1.603E-15
3.499E+02  1.772E-25  1.645E-15
3.467E+02  1.835E-25  1.688E-15
3.436E+02  1.900E-25  1.731E-15
3.404E+02  1.967E-25  1.776E-15
3.373E+02  2.036E-25  1.821E-15
3.342E+02  2.107E-25  1.868E-15
3.311E+02  2.181E-25  1.915E-15
3.281E+02  2.257E-25  1.964E-15
3.251E+02  2.335E-25  2.013E-15
3.221E+02  2.416E-25  2.064E-15
3.192E+02  2.500E-25  2.116E-15
3.162E+02  2.586E-25  2.169E-15
3.133E+02  2.675E-25  2.223E-15
3.105E+02  2.766E-25  2.278E-15
3.076E+02  2.861E-25  2.335E-15
3.048E+02  2.959E-25  2.392E-15
3.020E+02  3.060E-25  2.451E-15
2.992E+02  3.163E-25  2.511E-15
2.965E+02  3.270E-25  2.572E-15
2.938E+02  3.380E-25  2.634E-15
2.911E+02  3.494E-25  2.698E-15
2.884E+02  3.611E-25  2.762E-15
2.858E+02  3.731E-25  2.828E-15
2.831E+02  3.855E-25  2.896E-15
2.805E+02  3.983E-25  2.964E-15
2.780E+02  4.114E-25  3.034E-15
2.754E+02  4.250E-25  3.105E-15
2.729E+02  4.389E-25  3.177E-15
2.704E+02  4.533E-25  3.252E-15
2.679E+02  4.682E-25  3.327E-15
2.655E+02  4.834E-25  3.404E-15
2.630E+02  4.991E-25  3.482E-15
2.606E+02  5.153E-25  3.562E-15
2.582E+02  5.318E-25  3.643E-15
2.559E+02  5.488E-25  3.725E-15
2.535E+02  5.661E-25  3.807E-15
2.512E+02  5.838E-25  3.890E-15
2.489E+02  6.015E-25  3.971E-15
2.466E+02  6.193E-25  4.051E-15
2.443E+02  6.373E-25  4.131E-15
2.421E+02  6.556E-25  4.210E-15
2.399E+02  6.741E-25  4.290E-15
2.377E+02  6.927E-25  4.367E-15
2.355E+02  7.115E-25  4.445E-15
2.333E+02  7.308E-25  4.523E-15
2.312E+02  7.504E-25  4.602E-15
2.291E+02  7.704E-25  4.682E-15
2.270E+02  7.908E-25  4.761E-15
2.249E+02  8.115E-25  4.842E-15
2.228E+02  8.327E-25  4.922E-15
2.208E+02  8.542E-25  5.003E-15
2.188E+02  8.761E-25  5.084E-15
2.168E+02  8.984E-25  5.166E-15
2.148E+02  9.210E-25  5.247E-15
2.128E+02  9.440E-25  5.329E-15
2.109E+02  9.673E-25  5.410E-15
2.089E+02  9.910E-25  5.492E-15
2.070E+02  1.015E-24  5.574E-15
2.051E+02  1.039E-24  5.655E-15
2.032E+02  1.064E-24  5.736E-15
2.014E+02  1.089E-24  5.817E-15
1.995E+02  1.114E-24  5.898E-15
1.977E+02  1.140E-24  5.979E-15
1.959E+02  1.166E-24  6.059E-15
1.941E+02  1.192E-24  6.139E-15
1.923E+02  1.219E-24  6.218E-15
1.905E+02  1.246E-24  6.297E-15
1.888E+02  1.273E-24  6.376E-15
1.871E+02  1.301E-24  6.453E-15
1.854E+02  1.328E-24  6.530E-15
1.837E+02  1.356E-24  6.607E-15
1.820E+02  1.384E-24  6.683E-15
1.803E+02  1.413E-24  6.757E-15
1.786E+02  1.442E-24  6.832E-15
1.770E+02  1.471E-24  6.905E-15
1.754E+02  1.500E-24  6.977E-15
1.738E+02  1.529E-24  7.049E-15
1.722E+02  1.559E-24  7.119E-15
1.706E+02  1.589E-24  7.189E-15
1.690E+02  1.619E-24  7.257E-15
1.675E+02  1.649E-24  7.325E-15
1.660E+02  1.679E-24  7.392E-15
1.644E+02  1.710E-24  7.458E-15
1.629E+02  1.741E-24  7.523E-15
1.614E+02  1.772E-24  7.587E-15
1.600E+02  1.803E-24  7.651E-15
1.585E+02  1.835E-24  7.713E-15
1.570E+02  1.867E-24  7.775E-15
1.556E+02  1.899E-24  7.837E-15
1.542E+02  1.931E-24  7.898E-15
1.528E+02  1.964E-24  7.959E-15
1.514E+02  1.998E-24  8.020E-15
1.500E+02  2.031E-24  8.081E-15
1.486E+02  2.066E-24  8.142E-15
1.472E+02  2.100E-24  8.203E-15
1.459E+02  2.135E-24  8.262E-15
1.445E+02  2.170E-24  8.319E-15
1.432E+02  2.204E-24  8.373E-15
1.419E+02  2.237E-24  8.419E-15
1.406E+02  2.267E-24  8.456E-15
1.393E+02  2.295E-24  8.480E-15
1.380E+02  2.319E-24  8.491E-15
1.368E+02  2.340E-24  8.489E-15
1.355E+02  2.358E-24  8.476E-15
1.343E+02  2.374E-24  8.456E-15
1.330E+02  2.389E-24  8.430E-15
1.318E+02  2.403E-24  8.402E-15
1.306E+02  2.416E-24  8.372E-15
1.294E+02  2.430E-24  8.342E-15
1.282E+02  2.443E-24  8.311E-15
1.271E+02  2.457E-24  8.279E-15
1.259E+02  2.470E-24  8.248E-15
1.247E+02  2.483E-24  8.215E-15
1.236E+02  2.496E-24  8.182E-15
1.225E+02  2.508E-24  8.148E-15
1.213E+02  2.521E-24  8.113E-15
1.202E+02  2.532E-24  8.076E-15
1.191E+02  2.544E-24  8.038E-15
1.180E+02  2.555E-24  7.998E-15
1.169E+02  2.564E-24  7.956E-15
1.159E+02  2.574E-24  7.910E-15
1.148E+02  2.582E-24  7.864E-15
1.138E+02  2.590E-24  7.816E-15
1.127E+02  2.597E-24  7.766E-15
1.117E+02  2.604E-24  7.715E-15
1.107E+02  2.610E-24  7.662E-15
1.096E+02  2.615E-24  7.607E-15
1.086E+02  2.620E-24  7.550E-15
1.076E+02  2.623E-24  7.491E-15
1.067E+02  2.626E-24  7.430E-15
1.057E+02  2.628E-24  7.367E-15
1.047E+02  2.629E-24  7.302E-15
1.038E+02  2.629E-24  7.236E-15
1.028E+02  2.628E-24  7.167E-15
1.019E+02  2.626E-24  7.095E-15
1.009E+02  2.623E-24  7.022E-15
1.000E+02  2.619E-24  6.947E-15
9.908E+01  2.614E-24  6.870E-15
9.817E+01  2.608E-24  6.791E-15
9.727E+01  2.601E-24  6.711E-15
9.638E+01  2.593E-24  6.629E-15
9.550E+01  2.584E-24  6.546E-15
9.462E+01  2.574E-24  6.461E-15
9.376E+01  2.563E-24  6.374E-15
9.290E+01  2.551E-24  6.287E-15
9.204E+01  2.539E-24  6.198E-15
9.120E+01  2.525E-24  6.108E-15
9.036E+01  2.510E-24  6.017E-15
8.954E+01  2.495E-24  5.926E-15
8.872E+01  2.479E-24  5.833E-15
8.790E+01  2.462E-24  5.740E-15
8.710E+01  2.444E-24  5.646E-15
8.630E+01  2.425E-24  5.552E-15
8.551E+01  2.406E-24  5.457E-15
8.472E+01  2.386E-24  5.361E-15
8.395E+01  2.365E-24  5.265E-15
8.318E+01  2.343E-24  5.170E-15
8.241E+01  2.321E-24  5.073E-15
8.166E+01  2.298E-24  4.978E-15
8.091E+01  2.275E-24  4.882E-15
8.017E+01  2.251E-24  4.786E-15
7.943E+01  2.226E-24  4.691E-15
7.870E+01  2.201E-24  4.595E-15
7.798E+01  2.175E-24  4.500E-15
7.727E+01  2.149E-24  4.405E-15
7.656E+01  2.123E-24  4.311E-15
7.586E+01  2.096E-24  4.218E-15
7.516E+01  2.069E-24  4.125E-15
7.447E+01  2.041E-24  4.033E-15
7.379E+01  2.013E-24  3.940E-15
7.311E+01  1.985E-24  3.849E-15
7.244E+01  1.956E-24  3.759E-15
7.178E+01  1.927E-24  3.670E-15
7.112E+01  1.898E-24  3.582E-15
7.047E+01  1.870E-24  3.495E-15
6.982E+01  1.841E-24  3.410E-15
6.918E+01  1.812E-24  3.326E-15
6.855E+01  1.784E-24  3.243E-15
6.792E+01  1.755E-24  3.161E-15
6.730E+01  1.726E-24  3.081E-15
6.668E+01  1.697E-24  3.002E-15
6.607E+01  1.669E-24  2.925E-15
6.546E+01  1.640E-24  2.848E-15
6.486E+01  1.612E-24  2.774E-15
6.427E+01  1.584E-24  2.701E-15
6.368E+01  1.557E-24  2.629E-15
6.310E+01  1.529E-24  2.559E-15
6.252E+01  1.502E-24  2.491E-15
6.194E+01  1.476E-24  2.425E-15
6.138E+01  1.449E-24  2.360E-15
6.081E+01  1.424E-24  2.296E-15
6.026E+01  1.398E-24  2.235E-15
5.970E+01  1.373E-24  2.174E-15
5.916E+01  1.348E-24  2.116E-15
5.861E+01  1.324E-24  2.058E-15
5.808E+01  1.300E-24  2.003E-15
5.754E+01  1.277E-24  1.949E-15
5.702E+01  1.254E-24  1.896E-15
5.649E+01  1.231E-24  1.845E-15
5.598E+01  1.210E-24  1.796E-15
5.546E+01  1.188E-24  1.748E-15
5.495E+01  1.168E-24  1.702E-15
5.445E+01  1.148E-24  1.657E-15
5.395E+01  1.128E-24  1.614E-15
5.346E+01  1.109E-24  1.572E-15
5.297E+01  1.090E-24  1.532E-15
5.248E+01  1.072E-24  1.493E-15
5.200E+01  1.055E-24  1.455E-15
5.152E+01  1.038E-24  1.418E-15
5.105E+01  1.021E-24  1.383E-15
5.058E+01  1.005E-24  1.349E-15
5.012E+01  9.898E-25  1.316E-15
4.966E+01  9.749E-25  1.284E-15
