Dust emission from Draine & Li (2007): ApJ 657, 810-837
================================================================
         9 = grain model
 4.000E-08 4.000E-01 2.500E-06 = a_01 (cm) , sigma_1 , b_C1/0.92
 2.500E-07 4.000E-01 2.500E-06 = a_02 (cm) , sigma_2 , b_C2/0.92
 4.000E+00 1.000E+06 2.000E+00 = Umin , Umax, beta (dN/dU propto U^{-beta})
 4.972E+01 = <U> 
     mmp83 = radfield
 4.681E-23 = power/H (erg s-1)
 band   nu*P_nu(band) j_nu(band)
 (um)   (erg s-1 H-1)(Jy cm2 sr-1 H-1)
1.270E+00  8.858E-26  2.984E-18 COBE-DIRBE
2.220E+00  1.187E-25  6.993E-18 COBE-DIRBE
3.530E+00  5.441E-25  5.095E-17 COBE-DIRBE
4.880E+00  4.183E-25  5.414E-17 COBE-DIRBE
1.229E+01  7.130E-24  2.325E-15 COBE-DIRBE
2.079E+01  1.650E-23  9.100E-15 COBE-DIRBE
5.599E+01  2.030E-23  3.015E-14 COBE-DIRBE
9.770E+01  1.181E-23  3.060E-14 COBE-DIRBE
1.479E+02  5.545E-24  2.175E-14 COBE-DIRBE
2.479E+02  1.271E-24  8.355E-15 COBE-DIRBE
1.200E+01  6.538E-24  2.081E-15 IRAS
2.500E+01  1.858E-23  1.232E-14 IRAS
6.000E+01  1.959E-23  3.118E-14 IRAS
1.000E+02  1.136E-23  3.014E-14 IRAS
3.550E+00  6.219E-25  5.856E-17 SST-IRAC
4.493E+00  2.991E-25  3.565E-17 SST-IRAC
5.731E+00  1.882E-24  2.862E-16 SST-IRAC
7.872E+00  5.820E-24  1.215E-15 SST-IRAC
2.368E+01  1.788E-23  1.123E-14 SST-MIPS
7.142E+01  1.549E-23  2.935E-14 SST-MIPS
1.559E+02  4.495E-24  1.859E-14 SST-MIPS
1.600E+01  9.443E-24  4.008E-15 SST-IRSPU
2.200E+01  1.811E-23  1.057E-14 SST-IRSPU











lambda    nu*dP/dnu     j_nu
 (um)   (erg s-1 H-1)(Jy cm2 sr-1 H-1)
1.000E+04  2.841E-31  7.535E-20
9.908E+03  2.944E-31  7.738E-20
9.817E+03  3.052E-31  7.947E-20
9.727E+03  3.163E-31  8.161E-20
9.638E+03  3.278E-31  8.382E-20
9.550E+03  3.398E-31  8.608E-20
9.462E+03  3.522E-31  8.840E-20
9.376E+03  3.651E-31  9.079E-20
9.290E+03  3.784E-31  9.324E-20
9.204E+03  3.922E-31  9.576E-20
9.120E+03  4.065E-31  9.834E-20
9.036E+03  4.213E-31  1.010E-19
8.954E+03  4.367E-31  1.037E-19
8.872E+03  4.525E-31  1.065E-19
8.790E+03  4.689E-31  1.093E-19
8.710E+03  4.860E-31  1.123E-19
8.630E+03  5.036E-31  1.153E-19
8.551E+03  5.219E-31  1.184E-19
8.472E+03  5.409E-31  1.216E-19
8.395E+03  5.606E-31  1.248E-19
8.318E+03  5.810E-31  1.282E-19
8.241E+03  6.022E-31  1.317E-19
8.166E+03  6.242E-31  1.352E-19
8.091E+03  6.470E-31  1.389E-19
8.017E+03  6.706E-31  1.426E-19
7.943E+03  6.951E-31  1.465E-19
7.870E+03  7.205E-31  1.504E-19
7.798E+03  7.469E-31  1.545E-19
7.727E+03  7.742E-31  1.587E-19
7.656E+03  8.026E-31  1.630E-19
7.586E+03  8.320E-31  1.674E-19
7.516E+03  8.625E-31  1.720E-19
7.447E+03  8.942E-31  1.766E-19
7.379E+03  9.270E-31  1.814E-19
7.311E+03  9.610E-31  1.864E-19
7.244E+03  9.963E-31  1.915E-19
7.178E+03  1.033E-30  1.967E-19
7.112E+03  1.071E-30  2.020E-19
7.047E+03  1.110E-30  2.076E-19
6.982E+03  1.151E-30  2.132E-19
6.918E+03  1.194E-30  2.190E-19
6.855E+03  1.238E-30  2.250E-19
6.792E+03  1.283E-30  2.312E-19
6.730E+03  1.330E-30  2.375E-19
6.668E+03  1.379E-30  2.440E-19
6.607E+03  1.430E-30  2.507E-19
6.546E+03  1.483E-30  2.575E-19
6.486E+03  1.538E-30  2.646E-19
6.427E+03  1.595E-30  2.719E-19
6.368E+03  1.654E-30  2.793E-19
6.310E+03  1.715E-30  2.870E-19
6.252E+03  1.778E-30  2.949E-19
6.194E+03  1.844E-30  3.030E-19
6.138E+03  1.913E-30  3.114E-19
6.081E+03  1.984E-30  3.200E-19
6.026E+03  2.057E-30  3.288E-19
5.970E+03  2.134E-30  3.379E-19
5.916E+03  2.213E-30  3.473E-19
5.861E+03  2.295E-30  3.569E-19
5.808E+03  2.381E-30  3.668E-19
5.754E+03  2.469E-30  3.769E-19
5.702E+03  2.561E-30  3.874E-19
5.649E+03  2.657E-30  3.981E-19
5.598E+03  2.756E-30  4.092E-19
5.546E+03  2.859E-30  4.206E-19
5.495E+03  2.965E-30  4.323E-19
5.445E+03  3.076E-30  4.443E-19
5.395E+03  3.191E-30  4.567E-19
5.346E+03  3.310E-30  4.694E-19
5.297E+03  3.434E-30  4.825E-19
5.248E+03  3.563E-30  4.960E-19
5.200E+03  3.696E-30  5.098E-19
5.152E+03  3.835E-30  5.241E-19
5.105E+03  3.978E-30  5.387E-19
5.058E+03  4.128E-30  5.538E-19
5.012E+03  4.283E-30  5.693E-19
4.966E+03  4.443E-30  5.853E-19
4.920E+03  4.610E-30  6.017E-19
4.875E+03  4.783E-30  6.185E-19
4.831E+03  4.963E-30  6.359E-19
4.786E+03  5.149E-30  6.538E-19
4.742E+03  5.343E-30  6.721E-19
4.699E+03  5.544E-30  6.911E-19
4.656E+03  5.753E-30  7.105E-19
4.613E+03  5.970E-30  7.305E-19
4.571E+03  6.195E-30  7.511E-19
4.529E+03  6.429E-30  7.723E-19
4.487E+03  6.672E-30  7.942E-19
4.446E+03  6.924E-30  8.166E-19
4.406E+03  7.186E-30  8.397E-19
4.365E+03  7.458E-30  8.635E-19
4.325E+03  7.740E-30  8.880E-19
4.285E+03  8.033E-30  9.132E-19
4.246E+03  8.337E-30  9.391E-19
4.207E+03  8.654E-30  9.657E-19
4.169E+03  8.982E-30  9.932E-19
4.130E+03  9.323E-30  1.021E-18
4.093E+03  9.677E-30  1.051E-18
4.055E+03  1.004E-29  1.080E-18
4.018E+03  1.043E-29  1.111E-18
3.981E+03  1.082E-29  1.143E-18
3.945E+03  1.123E-29  1.175E-18
3.908E+03  1.166E-29  1.209E-18
3.873E+03  1.210E-29  1.243E-18
3.837E+03  1.257E-29  1.279E-18
3.802E+03  1.304E-29  1.315E-18
3.767E+03  1.354E-29  1.353E-18
3.733E+03  1.406E-29  1.392E-18
3.698E+03  1.459E-29  1.432E-18
3.664E+03  1.515E-29  1.473E-18
3.631E+03  1.573E-29  1.515E-18
3.597E+03  1.633E-29  1.559E-18
3.565E+03  1.696E-29  1.603E-18
3.532E+03  1.761E-29  1.650E-18
3.499E+03  1.828E-29  1.697E-18
3.467E+03  1.898E-29  1.746E-18
3.436E+03  1.971E-29  1.797E-18
3.404E+03  2.047E-29  1.848E-18
3.373E+03  2.126E-29  1.902E-18
3.342E+03  2.208E-29  1.957E-18
3.311E+03  2.292E-29  2.014E-18
3.281E+03  2.381E-29  2.072E-18
3.251E+03  2.472E-29  2.132E-18
3.221E+03  2.568E-29  2.194E-18
3.192E+03  2.667E-29  2.258E-18
3.162E+03  2.770E-29  2.323E-18
3.133E+03  2.877E-29  2.391E-18
3.105E+03  2.988E-29  2.461E-18
3.076E+03  3.103E-29  2.532E-18
3.048E+03  3.224E-29  2.606E-18
3.020E+03  3.348E-29  2.682E-18
2.992E+03  3.478E-29  2.760E-18
2.965E+03  3.612E-29  2.841E-18
2.938E+03  3.752E-29  2.923E-18
2.911E+03  3.897E-29  3.009E-18
2.884E+03  4.048E-29  3.096E-18
2.858E+03  4.204E-29  3.187E-18
2.831E+03  4.367E-29  3.280E-18
2.805E+03  4.537E-29  3.376E-18
2.780E+03  4.713E-29  3.475E-18
2.754E+03  4.896E-29  3.577E-18
2.729E+03  5.086E-29  3.682E-18
2.704E+03  5.283E-29  3.790E-18
2.679E+03  5.489E-29  3.901E-18
2.655E+03  5.703E-29  4.016E-18
2.630E+03  5.925E-29  4.134E-18
2.606E+03  6.156E-29  4.255E-18
2.582E+03  6.396E-29  4.381E-18
2.559E+03  6.645E-29  4.510E-18
2.535E+03  6.905E-29  4.643E-18
2.512E+03  7.174E-29  4.780E-18
2.489E+03  7.455E-29  4.922E-18
2.466E+03  7.746E-29  5.067E-18
2.443E+03  8.049E-29  5.217E-18
2.421E+03  8.365E-29  5.372E-18
2.399E+03  8.692E-29  5.531E-18
2.377E+03  9.033E-29  5.695E-18
2.355E+03  9.387E-29  5.864E-18
2.333E+03  9.756E-29  6.038E-18
2.312E+03  1.014E-28  6.218E-18
2.291E+03  1.054E-28  6.403E-18
2.270E+03  1.095E-28  6.593E-18
2.249E+03  1.138E-28  6.790E-18
2.228E+03  1.183E-28  6.992E-18
2.208E+03  1.229E-28  7.201E-18
2.188E+03  1.278E-28  7.416E-18
2.168E+03  1.328E-28  7.637E-18
2.148E+03  1.380E-28  7.865E-18
2.128E+03  1.435E-28  8.100E-18
2.109E+03  1.491E-28  8.342E-18
2.089E+03  1.550E-28  8.592E-18
2.070E+03  1.612E-28  8.849E-18
2.051E+03  1.675E-28  9.114E-18
2.032E+03  1.741E-28  9.387E-18
2.014E+03  1.810E-28  9.669E-18
1.995E+03  1.882E-28  9.959E-18
1.977E+03  1.956E-28  1.026E-17
1.959E+03  2.033E-28  1.056E-17
1.941E+03  2.114E-28  1.088E-17
1.923E+03  2.197E-28  1.121E-17
1.905E+03  2.284E-28  1.155E-17
1.888E+03  2.375E-28  1.189E-17
1.871E+03  2.469E-28  1.225E-17
1.854E+03  2.567E-28  1.262E-17
1.837E+03  2.668E-28  1.300E-17
1.820E+03  2.774E-28  1.339E-17
1.803E+03  2.884E-28  1.379E-17
1.786E+03  2.999E-28  1.421E-17
1.770E+03  3.118E-28  1.464E-17
1.754E+03  3.241E-28  1.508E-17
1.738E+03  3.370E-28  1.554E-17
1.722E+03  3.504E-28  1.600E-17
1.706E+03  3.643E-28  1.649E-17
1.690E+03  3.788E-28  1.699E-17
1.675E+03  3.939E-28  1.750E-17
1.660E+03  4.095E-28  1.803E-17
1.644E+03  4.258E-28  1.857E-17
1.629E+03  4.427E-28  1.913E-17
1.614E+03  4.604E-28  1.971E-17
1.600E+03  4.787E-28  2.031E-17
1.585E+03  4.977E-28  2.092E-17
1.570E+03  5.175E-28  2.156E-17
1.556E+03  5.381E-28  2.221E-17
1.542E+03  5.596E-28  2.288E-17
1.528E+03  5.818E-28  2.358E-17
1.514E+03  6.050E-28  2.429E-17
1.500E+03  6.291E-28  2.503E-17
1.486E+03  6.542E-28  2.579E-17
1.472E+03  6.803E-28  2.657E-17
1.459E+03  7.074E-28  2.737E-17
1.445E+03  7.356E-28  2.820E-17
1.432E+03  7.650E-28  2.906E-17
1.419E+03  7.955E-28  2.994E-17
1.406E+03  8.272E-28  3.085E-17
1.393E+03  8.602E-28  3.179E-17
1.380E+03  8.946E-28  3.276E-17
1.368E+03  9.303E-28  3.375E-17
1.355E+03  9.674E-28  3.478E-17
1.343E+03  1.006E-27  3.583E-17
1.330E+03  1.046E-27  3.692E-17
1.318E+03  1.088E-27  3.804E-17
1.306E+03  1.131E-27  3.920E-17
1.294E+03  1.177E-27  4.039E-17
1.282E+03  1.223E-27  4.162E-17
1.271E+03  1.272E-27  4.288E-17
1.259E+03  1.323E-27  4.418E-17
1.247E+03  1.376E-27  4.553E-17
1.236E+03  1.431E-27  4.691E-17
1.225E+03  1.488E-27  4.833E-17
1.213E+03  1.547E-27  4.980E-17
1.202E+03  1.609E-27  5.131E-17
1.191E+03  1.673E-27  5.287E-17
1.180E+03  1.740E-27  5.447E-17
1.169E+03  1.809E-27  5.612E-17
1.159E+03  1.881E-27  5.782E-17
1.148E+03  1.956E-27  5.958E-17
1.138E+03  2.034E-27  6.138E-17
1.127E+03  2.115E-27  6.324E-17
1.117E+03  2.199E-27  6.516E-17
1.107E+03  2.287E-27  6.713E-17
1.096E+03  2.378E-27  6.916E-17
1.086E+03  2.473E-27  7.126E-17
1.076E+03  2.571E-27  7.341E-17
1.067E+03  2.673E-27  7.563E-17
1.057E+03  2.779E-27  7.791E-17
1.047E+03  2.890E-27  8.027E-17
1.038E+03  3.005E-27  8.269E-17
1.028E+03  3.124E-27  8.518E-17
1.019E+03  3.248E-27  8.775E-17
1.009E+03  3.377E-27  9.040E-17
1.000E+03  3.511E-27  9.312E-17
9.908E+02  3.650E-27  9.593E-17
9.817E+02  3.795E-27  9.882E-17
9.727E+02  3.945E-27  1.018E-16
9.638E+02  4.102E-27  1.049E-16
9.550E+02  4.265E-27  1.080E-16
9.462E+02  4.434E-27  1.113E-16
9.376E+02  4.609E-27  1.146E-16
9.290E+02  4.792E-27  1.181E-16
9.204E+02  4.981E-27  1.216E-16
9.120E+02  5.178E-27  1.253E-16
9.036E+02  5.383E-27  1.290E-16
8.954E+02  5.596E-27  1.329E-16
8.872E+02  5.816E-27  1.369E-16
8.790E+02  6.046E-27  1.410E-16
8.710E+02  6.284E-27  1.452E-16
8.630E+02  6.531E-27  1.495E-16
8.551E+02  6.788E-27  1.540E-16
8.472E+02  7.055E-27  1.585E-16
8.395E+02  7.332E-27  1.633E-16
8.318E+02  7.619E-27  1.681E-16
8.241E+02  7.918E-27  1.731E-16
8.166E+02  8.228E-27  1.782E-16
8.091E+02  8.550E-27  1.835E-16
8.017E+02  8.884E-27  1.889E-16
7.943E+02  9.231E-27  1.945E-16
7.870E+02  9.591E-27  2.002E-16
7.798E+02  9.966E-27  2.061E-16
7.727E+02  1.035E-26  2.122E-16
7.656E+02  1.076E-26  2.185E-16
7.586E+02  1.118E-26  2.249E-16
7.516E+02  1.161E-26  2.315E-16
7.447E+02  1.206E-26  2.383E-16
7.379E+02  1.253E-26  2.453E-16
7.311E+02  1.302E-26  2.525E-16
7.244E+02  1.353E-26  2.600E-16
7.178E+02  1.406E-26  2.676E-16
7.112E+02  1.460E-26  2.755E-16
7.047E+02  1.517E-26  2.836E-16
6.982E+02  1.576E-26  2.920E-16
6.918E+02  1.638E-26  3.005E-16
6.855E+02  1.701E-26  3.094E-16
6.792E+02  1.768E-26  3.185E-16
6.730E+02  1.836E-26  3.278E-16
6.668E+02  1.907E-26  3.374E-16
6.607E+02  1.981E-26  3.472E-16
6.546E+02  2.058E-26  3.574E-16
6.486E+02  2.138E-26  3.679E-16
6.427E+02  2.222E-26  3.788E-16
6.368E+02  2.308E-26  3.899E-16
6.310E+02  2.398E-26  4.014E-16
6.252E+02  2.492E-26  4.132E-16
6.194E+02  2.589E-26  4.254E-16
6.138E+02  2.690E-26  4.379E-16
6.081E+02  2.795E-26  4.508E-16
6.026E+02  2.904E-26  4.641E-16
5.970E+02  3.017E-26  4.778E-16
5.916E+02  3.135E-26  4.919E-16
5.861E+02  3.257E-26  5.064E-16
5.808E+02  3.384E-26  5.213E-16
5.754E+02  3.516E-26  5.366E-16
5.702E+02  3.653E-26  5.524E-16
5.649E+02  3.795E-26  5.687E-16
5.598E+02  3.943E-26  5.855E-16
5.546E+02  4.097E-26  6.027E-16
5.495E+02  4.257E-26  6.205E-16
5.445E+02  4.423E-26  6.388E-16
5.395E+02  4.595E-26  6.576E-16
5.346E+02  4.774E-26  6.770E-16
5.297E+02  4.960E-26  6.969E-16
5.248E+02  5.154E-26  7.175E-16
5.200E+02  5.355E-26  7.386E-16
5.152E+02  5.564E-26  7.604E-16
5.105E+02  5.781E-26  7.828E-16
5.058E+02  6.006E-26  8.058E-16
5.012E+02  6.240E-26  8.296E-16
4.966E+02  6.483E-26  8.540E-16
4.920E+02  6.735E-26  8.791E-16
4.875E+02  6.998E-26  9.049E-16
4.831E+02  7.270E-26  9.316E-16
4.786E+02  7.553E-26  9.589E-16
4.742E+02  7.847E-26  9.871E-16
4.699E+02  8.152E-26  1.016E-15
4.656E+02  8.469E-26  1.046E-15
4.613E+02  8.798E-26  1.077E-15
4.571E+02  9.140E-26  1.108E-15
4.529E+02  9.495E-26  1.141E-15
4.487E+02  9.864E-26  1.174E-15
4.446E+02  1.025E-25  1.208E-15
4.406E+02  1.064E-25  1.244E-15
4.365E+02  1.106E-25  1.280E-15
4.325E+02  1.148E-25  1.318E-15
4.285E+02  1.193E-25  1.356E-15
4.246E+02  1.239E-25  1.396E-15
4.207E+02  1.287E-25  1.436E-15
4.169E+02  1.337E-25  1.478E-15
4.130E+02  1.389E-25  1.521E-15
4.093E+02  1.442E-25  1.566E-15
4.055E+02  1.498E-25  1.611E-15
4.018E+02  1.556E-25  1.658E-15
3.981E+02  1.616E-25  1.706E-15
3.945E+02  1.678E-25  1.756E-15
3.908E+02  1.743E-25  1.807E-15
3.873E+02  1.810E-25  1.859E-15
3.837E+02  1.880E-25  1.913E-15
3.802E+02  1.952E-25  1.969E-15
3.767E+02  2.027E-25  2.026E-15
3.733E+02  2.105E-25  2.084E-15
3.698E+02  2.186E-25  2.145E-15
3.664E+02  2.270E-25  2.207E-15
3.631E+02  2.357E-25  2.270E-15
3.597E+02  2.447E-25  2.336E-15
3.565E+02  2.541E-25  2.403E-15
3.532E+02  2.638E-25  2.472E-15
3.499E+02  2.739E-25  2.543E-15
3.467E+02  2.844E-25  2.616E-15
3.436E+02  2.952E-25  2.690E-15
3.404E+02  3.065E-25  2.767E-15
3.373E+02  3.181E-25  2.846E-15
3.342E+02  3.302E-25  2.927E-15
3.311E+02  3.428E-25  3.011E-15
3.281E+02  3.558E-25  3.096E-15
3.251E+02  3.692E-25  3.184E-15
3.221E+02  3.832E-25  3.274E-15
3.192E+02  3.977E-25  3.367E-15
3.162E+02  4.127E-25  3.462E-15
3.133E+02  4.282E-25  3.559E-15
3.105E+02  4.443E-25  3.659E-15
3.076E+02  4.610E-25  3.762E-15
3.048E+02  4.783E-25  3.867E-15
3.020E+02  4.962E-25  3.975E-15
2.992E+02  5.148E-25  4.086E-15
2.965E+02  5.340E-25  4.199E-15
2.938E+02  5.539E-25  4.316E-15
2.911E+02  5.745E-25  4.436E-15
2.884E+02  5.958E-25  4.558E-15
2.858E+02  6.179E-25  4.684E-15
2.831E+02  6.407E-25  4.812E-15
2.805E+02  6.644E-25  4.944E-15
2.780E+02  6.889E-25  5.079E-15
2.754E+02  7.142E-25  5.218E-15
2.729E+02  7.405E-25  5.360E-15
2.704E+02  7.678E-25  5.507E-15
2.679E+02  7.960E-25  5.657E-15
2.655E+02  8.252E-25  5.811E-15
2.630E+02  8.554E-25  5.968E-15
2.606E+02  8.867E-25  6.130E-15
2.582E+02  9.191E-25  6.295E-15
2.559E+02  9.523E-25  6.463E-15
2.535E+02  9.865E-25  6.634E-15
2.512E+02  1.022E-24  6.808E-15
2.489E+02  1.057E-24  6.981E-15
2.466E+02  1.093E-24  7.152E-15
2.443E+02  1.130E-24  7.326E-15
2.421E+02  1.168E-24  7.501E-15
2.399E+02  1.207E-24  7.677E-15
2.377E+02  1.245E-24  7.852E-15
2.355E+02  1.285E-24  8.030E-15
2.333E+02  1.327E-24  8.211E-15
2.312E+02  1.369E-24  8.395E-15
2.291E+02  1.412E-24  8.581E-15
2.270E+02  1.457E-24  8.771E-15
2.249E+02  1.502E-24  8.963E-15
2.228E+02  1.549E-24  9.159E-15
2.208E+02  1.598E-24  9.358E-15
2.188E+02  1.647E-24  9.559E-15
2.168E+02  1.698E-24  9.764E-15
2.148E+02  1.750E-24  9.971E-15
2.128E+02  1.804E-24  1.018E-14
2.109E+02  1.858E-24  1.039E-14
2.089E+02  1.915E-24  1.061E-14
2.070E+02  1.972E-24  1.083E-14
2.051E+02  2.031E-24  1.105E-14
2.032E+02  2.091E-24  1.127E-14
2.014E+02  2.153E-24  1.150E-14
1.995E+02  2.217E-24  1.173E-14
1.977E+02  2.281E-24  1.196E-14
1.959E+02  2.348E-24  1.220E-14
1.941E+02  2.415E-24  1.244E-14
1.923E+02  2.485E-24  1.268E-14
1.905E+02  2.556E-24  1.292E-14
1.888E+02  2.628E-24  1.316E-14
1.871E+02  2.703E-24  1.341E-14
1.854E+02  2.779E-24  1.366E-14
1.837E+02  2.856E-24  1.391E-14
1.820E+02  2.935E-24  1.417E-14
1.803E+02  3.016E-24  1.443E-14
1.786E+02  3.099E-24  1.469E-14
1.770E+02  3.184E-24  1.495E-14
1.754E+02  3.270E-24  1.521E-14
1.738E+02  3.358E-24  1.548E-14
1.722E+02  3.448E-24  1.575E-14
1.706E+02  3.540E-24  1.602E-14
1.690E+02  3.634E-24  1.630E-14
1.675E+02  3.730E-24  1.657E-14
1.660E+02  3.828E-24  1.685E-14
1.644E+02  3.929E-24  1.714E-14
1.629E+02  4.031E-24  1.742E-14
1.614E+02  4.136E-24  1.771E-14
1.600E+02  4.243E-24  1.800E-14
1.585E+02  4.352E-24  1.830E-14
1.570E+02  4.464E-24  1.859E-14
1.556E+02  4.579E-24  1.890E-14
1.542E+02  4.696E-24  1.920E-14
1.528E+02  4.816E-24  1.952E-14
1.514E+02  4.940E-24  1.983E-14
1.500E+02  5.067E-24  2.016E-14
1.486E+02  5.197E-24  2.048E-14
1.472E+02  5.331E-24  2.082E-14
1.459E+02  5.468E-24  2.116E-14
1.445E+02  5.607E-24  2.150E-14
1.432E+02  5.748E-24  2.184E-14
1.419E+02  5.888E-24  2.216E-14
1.406E+02  6.026E-24  2.248E-14
1.393E+02  6.160E-24  2.277E-14
1.380E+02  6.289E-24  2.303E-14
1.368E+02  6.413E-24  2.327E-14
1.355E+02  6.533E-24  2.348E-14
1.343E+02  6.650E-24  2.369E-14
1.330E+02  6.766E-24  2.388E-14
1.318E+02  6.883E-24  2.407E-14
1.306E+02  7.002E-24  2.426E-14
1.294E+02  7.124E-24  2.446E-14
1.282E+02  7.247E-24  2.465E-14
1.271E+02  7.374E-24  2.485E-14
1.259E+02  7.503E-24  2.505E-14
1.247E+02  7.634E-24  2.526E-14
1.236E+02  7.767E-24  2.547E-14
1.225E+02  7.904E-24  2.567E-14
1.213E+02  8.042E-24  2.588E-14
1.202E+02  8.182E-24  2.609E-14
1.191E+02  8.324E-24  2.630E-14
1.180E+02  8.467E-24  2.651E-14
1.169E+02  8.611E-24  2.671E-14
1.159E+02  8.757E-24  2.692E-14
1.148E+02  8.904E-24  2.712E-14
1.138E+02  9.053E-24  2.732E-14
1.127E+02  9.203E-24  2.752E-14
1.117E+02  9.355E-24  2.772E-14
1.107E+02  9.509E-24  2.791E-14
1.096E+02  9.663E-24  2.811E-14
1.086E+02  9.819E-24  2.830E-14
1.076E+02  9.976E-24  2.849E-14
1.067E+02  1.013E-23  2.867E-14
1.057E+02  1.029E-23  2.885E-14
1.047E+02  1.045E-23  2.903E-14
1.038E+02  1.061E-23  2.921E-14
1.028E+02  1.077E-23  2.938E-14
1.019E+02  1.093E-23  2.954E-14
1.009E+02  1.109E-23  2.970E-14
1.000E+02  1.126E-23  2.986E-14
9.908E+01  1.142E-23  3.001E-14
9.817E+01  1.158E-23  3.015E-14
9.727E+01  1.174E-23  3.029E-14
9.638E+01  1.190E-23  3.043E-14
9.550E+01  1.206E-23  3.056E-14
9.462E+01  1.222E-23  3.068E-14
9.376E+01  1.238E-23  3.080E-14
9.290E+01  1.255E-23  3.091E-14
9.204E+01  1.271E-23  3.102E-14
9.120E+01  1.287E-23  3.113E-14
9.036E+01  1.303E-23  3.122E-14
8.954E+01  1.319E-23  3.132E-14
8.872E+01  1.334E-23  3.140E-14
8.790E+01  1.350E-23  3.149E-14
8.710E+01  1.366E-23  3.157E-14
8.630E+01  1.382E-23  3.164E-14
8.551E+01  1.398E-23  3.171E-14
8.472E+01  1.414E-23  3.177E-14
8.395E+01  1.429E-23  3.183E-14
8.318E+01  1.445E-23  3.188E-14
8.241E+01  1.460E-23  3.192E-14
8.166E+01  1.476E-23  3.196E-14
8.091E+01  1.491E-23  3.200E-14
8.017E+01  1.506E-23  3.203E-14
7.943E+01  1.521E-23  3.206E-14
7.870E+01  1.536E-23  3.207E-14
7.798E+01  1.551E-23  3.209E-14
7.727E+01  1.566E-23  3.209E-14
7.656E+01  1.581E-23  3.210E-14
7.586E+01  1.595E-23  3.210E-14
7.516E+01  1.610E-23  3.209E-14
7.447E+01  1.624E-23  3.208E-14
7.379E+01  1.638E-23  3.206E-14
7.311E+01  1.652E-23  3.204E-14
7.244E+01  1.666E-23  3.200E-14
7.178E+01  1.679E-23  3.197E-14
7.112E+01  1.693E-23  3.193E-14
7.047E+01  1.706E-23  3.189E-14
6.982E+01  1.720E-23  3.185E-14
6.918E+01  1.733E-23  3.181E-14
6.855E+01  1.746E-23  3.175E-14
6.792E+01  1.759E-23  3.169E-14
6.730E+01  1.772E-23  3.163E-14
6.668E+01  1.784E-23  3.156E-14
6.607E+01  1.797E-23  3.150E-14
6.546E+01  1.810E-23  3.143E-14
6.486E+01  1.822E-23  3.135E-14
6.427E+01  1.834E-23  3.127E-14
6.368E+01  1.846E-23  3.119E-14
6.310E+01  1.859E-23  3.111E-14
6.252E+01  1.871E-23  3.102E-14
6.194E+01  1.883E-23  3.094E-14
6.138E+01  1.895E-23  3.085E-14
6.081E+01  1.907E-23  3.076E-14
6.026E+01  1.919E-23  3.066E-14
5.970E+01  1.930E-23  3.057E-14
5.916E+01  1.942E-23  3.047E-14
5.861E+01  1.953E-23  3.037E-14
5.808E+01  1.965E-23  3.027E-14
5.754E+01  1.976E-23  3.016E-14
5.702E+01  1.987E-23  3.006E-14
5.649E+01  1.999E-23  2.995E-14
5.598E+01  2.010E-23  2.985E-14
5.546E+01  2.022E-23  2.974E-14
5.495E+01  2.033E-23  2.964E-14
5.445E+01  2.045E-23  2.953E-14
5.395E+01  2.056E-23  2.943E-14
5.346E+01  2.068E-23  2.932E-14
5.297E+01  2.080E-23  2.922E-14
5.248E+01  2.092E-23  2.912E-14
5.200E+01  2.103E-23  2.901E-14
5.152E+01  2.115E-23  2.891E-14
5.105E+01  2.127E-23  2.880E-14
5.058E+01  2.139E-23  2.870E-14
5.012E+01  2.151E-23  2.860E-14
4.966E+01  2.163E-23  2.850E-14
