Dust emission from Draine & Li (2007): ApJ 657, 810-837
================================================================
         6 = grain model
 4.000E-08 4.000E-01 3.750E-05 = a_01 (cm) , sigma_1 , b_C1/0.92
 2.500E-07 4.000E-01 1.250E-05 = a_02 (cm) , sigma_2 , b_C2/0.92
 4.000E+00 1.000E+03 2.000E+00 = Umin , Umax, beta (dN/dU propto U^{-beta})
 2.217E+01 = <U> 
     mmp83 = radfield
 1.000E-22 = power/H (erg s-1)
 band   nu*P_nu(band) j_nu(band)
 (um)   (erg s-1 H-1)(Jy cm2 sr-1 H-1)
1.270E+00  3.373E-25  1.136E-17 COBE-DIRBE
2.220E+00  4.300E-25  2.532E-17 COBE-DIRBE
3.530E+00  2.816E-24  2.637E-16 COBE-DIRBE
4.880E+00  1.308E-24  1.693E-16 COBE-DIRBE
1.229E+01  1.183E-23  3.856E-15 COBE-DIRBE
2.079E+01  1.064E-23  5.868E-15 COBE-DIRBE
5.599E+01  5.640E-23  8.376E-14 COBE-DIRBE
9.770E+01  3.947E-23  1.023E-13 COBE-DIRBE
1.479E+02  1.906E-23  7.479E-14 COBE-DIRBE
2.479E+02  4.234E-24  2.783E-14 COBE-DIRBE
1.200E+01  1.242E-23  3.952E-15 IRAS
2.500E+01  1.200E-23  7.959E-15 IRAS
6.000E+01  5.542E-23  8.821E-14 IRAS
1.000E+02  3.812E-23  1.011E-13 IRAS
3.550E+00  3.276E-24  3.085E-16 SST-IRAC
4.493E+00  9.157E-25  1.091E-16 SST-IRAC
5.731E+00  7.761E-24  1.180E-15 SST-IRAC
7.872E+00  1.803E-23  3.766E-15 SST-IRAC
2.368E+01  1.014E-23  6.369E-15 SST-MIPS
7.142E+01  4.909E-23  9.300E-14 SST-MIPS
1.559E+02  1.547E-23  6.399E-14 SST-MIPS
1.600E+01  9.988E-24  4.239E-15 SST-IRSPU
2.200E+01  1.032E-23  6.024E-15 SST-IRSPU











lambda    nu*dP/dnu     j_nu
 (um)   (erg s-1 H-1)(Jy cm2 sr-1 H-1)
1.000E+04  8.002E-31  2.122E-19
9.908E+03  8.295E-31  2.180E-19
9.817E+03  8.599E-31  2.239E-19
9.727E+03  8.913E-31  2.300E-19
9.638E+03  9.240E-31  2.362E-19
9.550E+03  9.578E-31  2.426E-19
9.462E+03  9.929E-31  2.492E-19
9.376E+03  1.029E-30  2.560E-19
9.290E+03  1.067E-30  2.629E-19
9.204E+03  1.106E-30  2.701E-19
9.120E+03  1.147E-30  2.774E-19
9.036E+03  1.189E-30  2.849E-19
8.954E+03  1.232E-30  2.926E-19
8.872E+03  1.277E-30  3.005E-19
8.790E+03  1.324E-30  3.086E-19
8.710E+03  1.372E-30  3.169E-19
8.630E+03  1.422E-30  3.255E-19
8.551E+03  1.474E-30  3.343E-19
8.472E+03  1.528E-30  3.433E-19
8.395E+03  1.584E-30  3.526E-19
8.318E+03  1.642E-30  3.622E-19
8.241E+03  1.702E-30  3.720E-19
8.166E+03  1.764E-30  3.821E-19
8.091E+03  1.829E-30  3.925E-19
8.017E+03  1.896E-30  4.032E-19
7.943E+03  1.966E-30  4.142E-19
7.870E+03  2.038E-30  4.254E-19
7.798E+03  2.113E-30  4.370E-19
7.727E+03  2.190E-30  4.490E-19
7.656E+03  2.271E-30  4.612E-19
7.586E+03  2.355E-30  4.738E-19
7.516E+03  2.442E-30  4.868E-19
7.447E+03  2.532E-30  5.001E-19
7.379E+03  2.625E-30  5.138E-19
7.311E+03  2.722E-30  5.279E-19
7.244E+03  2.823E-30  5.424E-19
7.178E+03  2.927E-30  5.573E-19
7.112E+03  3.035E-30  5.726E-19
7.047E+03  3.148E-30  5.884E-19
6.982E+03  3.264E-30  6.046E-19
6.918E+03  3.385E-30  6.212E-19
6.855E+03  3.510E-30  6.383E-19
6.792E+03  3.640E-30  6.558E-19
6.730E+03  3.775E-30  6.739E-19
6.668E+03  3.915E-30  6.925E-19
6.607E+03  4.061E-30  7.116E-19
6.546E+03  4.211E-30  7.313E-19
6.486E+03  4.368E-30  7.515E-19
6.427E+03  4.530E-30  7.723E-19
6.368E+03  4.699E-30  7.937E-19
6.310E+03  4.874E-30  8.157E-19
6.252E+03  5.056E-30  8.384E-19
6.194E+03  5.244E-30  8.617E-19
6.138E+03  5.440E-30  8.856E-19
6.081E+03  5.643E-30  9.103E-19
6.026E+03  5.854E-30  9.356E-19
5.970E+03  6.073E-30  9.617E-19
5.916E+03  6.300E-30  9.886E-19
5.861E+03  6.536E-30  1.016E-18
5.808E+03  6.781E-30  1.045E-18
5.754E+03  7.035E-30  1.074E-18
5.702E+03  7.299E-30  1.104E-18
5.649E+03  7.573E-30  1.135E-18
5.598E+03  7.857E-30  1.167E-18
5.546E+03  8.153E-30  1.199E-18
5.495E+03  8.459E-30  1.233E-18
5.445E+03  8.778E-30  1.268E-18
5.395E+03  9.108E-30  1.303E-18
5.346E+03  9.451E-30  1.340E-18
5.297E+03  9.808E-30  1.378E-18
5.248E+03  1.018E-29  1.417E-18
5.200E+03  1.056E-29  1.457E-18
5.152E+03  1.096E-29  1.498E-18
5.105E+03  1.137E-29  1.540E-18
5.058E+03  1.180E-29  1.584E-18
5.012E+03  1.225E-29  1.629E-18
4.966E+03  1.271E-29  1.675E-18
4.920E+03  1.320E-29  1.722E-18
4.875E+03  1.370E-29  1.771E-18
4.831E+03  1.422E-29  1.821E-18
4.786E+03  1.475E-29  1.873E-18
4.742E+03  1.531E-29  1.926E-18
4.699E+03  1.590E-29  1.981E-18
4.656E+03  1.650E-29  2.038E-18
4.613E+03  1.713E-29  2.096E-18
4.571E+03  1.778E-29  2.156E-18
4.529E+03  1.846E-29  2.217E-18
4.487E+03  1.916E-29  2.281E-18
4.446E+03  1.989E-29  2.346E-18
4.406E+03  2.065E-29  2.413E-18
4.365E+03  2.144E-29  2.482E-18
4.325E+03  2.226E-29  2.554E-18
4.285E+03  2.311E-29  2.627E-18
4.246E+03  2.399E-29  2.703E-18
4.207E+03  2.491E-29  2.780E-18
4.169E+03  2.587E-29  2.861E-18
4.130E+03  2.686E-29  2.943E-18
4.093E+03  2.789E-29  3.028E-18
4.055E+03  2.896E-29  3.115E-18
4.018E+03  3.008E-29  3.205E-18
3.981E+03  3.123E-29  3.298E-18
3.945E+03  3.243E-29  3.393E-18
3.908E+03  3.368E-29  3.491E-18
3.873E+03  3.497E-29  3.592E-18
3.837E+03  3.632E-29  3.696E-18
3.802E+03  3.772E-29  3.804E-18
3.767E+03  3.917E-29  3.914E-18
3.733E+03  4.068E-29  4.028E-18
3.698E+03  4.225E-29  4.145E-18
3.664E+03  4.389E-29  4.266E-18
3.631E+03  4.558E-29  4.390E-18
3.597E+03  4.735E-29  4.518E-18
3.565E+03  4.918E-29  4.650E-18
3.532E+03  5.109E-29  4.786E-18
3.499E+03  5.307E-29  4.926E-18
3.467E+03  5.513E-29  5.071E-18
3.436E+03  5.727E-29  5.219E-18
3.404E+03  5.950E-29  5.373E-18
3.373E+03  6.182E-29  5.531E-18
3.342E+03  6.422E-29  5.693E-18
3.311E+03  6.673E-29  5.861E-18
3.281E+03  6.933E-29  6.034E-18
3.251E+03  7.203E-29  6.212E-18
3.221E+03  7.485E-29  6.395E-18
3.192E+03  7.777E-29  6.584E-18
3.162E+03  8.081E-29  6.779E-18
3.133E+03  8.398E-29  6.979E-18
3.105E+03  8.726E-29  7.186E-18
3.076E+03  9.068E-29  7.399E-18
3.048E+03  9.424E-29  7.619E-18
3.020E+03  9.794E-29  7.845E-18
2.992E+03  1.018E-28  8.078E-18
2.965E+03  1.058E-28  8.318E-18
2.938E+03  1.099E-28  8.565E-18
2.911E+03  1.142E-28  8.819E-18
2.884E+03  1.187E-28  9.081E-18
2.858E+03  1.234E-28  9.351E-18
2.831E+03  1.282E-28  9.630E-18
2.805E+03  1.333E-28  9.917E-18
2.780E+03  1.385E-28  1.021E-17
2.754E+03  1.440E-28  1.052E-17
2.729E+03  1.496E-28  1.083E-17
2.704E+03  1.555E-28  1.116E-17
2.679E+03  1.617E-28  1.149E-17
2.655E+03  1.681E-28  1.183E-17
2.630E+03  1.747E-28  1.219E-17
2.606E+03  1.816E-28  1.256E-17
2.582E+03  1.888E-28  1.293E-17
2.559E+03  1.963E-28  1.332E-17
2.535E+03  2.041E-28  1.372E-17
2.512E+03  2.122E-28  1.414E-17
2.489E+03  2.206E-28  1.456E-17
2.466E+03  2.294E-28  1.500E-17
2.443E+03  2.385E-28  1.546E-17
2.421E+03  2.480E-28  1.592E-17
2.399E+03  2.578E-28  1.641E-17
2.377E+03  2.681E-28  1.690E-17
2.355E+03  2.788E-28  1.742E-17
2.333E+03  2.899E-28  1.794E-17
2.312E+03  3.015E-28  1.849E-17
2.291E+03  3.135E-28  1.905E-17
2.270E+03  3.260E-28  1.963E-17
2.249E+03  3.390E-28  2.023E-17
2.228E+03  3.526E-28  2.084E-17
2.208E+03  3.667E-28  2.148E-17
2.188E+03  3.814E-28  2.213E-17
2.168E+03  3.966E-28  2.281E-17
2.148E+03  4.125E-28  2.350E-17
2.128E+03  4.290E-28  2.422E-17
2.109E+03  4.462E-28  2.496E-17
2.089E+03  4.641E-28  2.572E-17
2.070E+03  4.828E-28  2.651E-17
2.051E+03  5.021E-28  2.732E-17
2.032E+03  5.223E-28  2.816E-17
2.014E+03  5.433E-28  2.902E-17
1.995E+03  5.651E-28  2.991E-17
1.977E+03  5.878E-28  3.083E-17
1.959E+03  6.115E-28  3.177E-17
1.941E+03  6.361E-28  3.275E-17
1.923E+03  6.617E-28  3.375E-17
1.905E+03  6.883E-28  3.479E-17
1.888E+03  7.160E-28  3.586E-17
1.871E+03  7.449E-28  3.696E-17
1.854E+03  7.749E-28  3.810E-17
1.837E+03  8.061E-28  3.927E-17
1.820E+03  8.387E-28  4.048E-17
1.803E+03  8.725E-28  4.173E-17
1.786E+03  9.077E-28  4.302E-17
1.770E+03  9.444E-28  4.434E-17
1.754E+03  9.825E-28  4.571E-17
1.738E+03  1.022E-27  4.712E-17
1.722E+03  1.064E-27  4.858E-17
1.706E+03  1.107E-27  5.008E-17
1.690E+03  1.151E-27  5.162E-17
1.675E+03  1.198E-27  5.322E-17
1.660E+03  1.246E-27  5.487E-17
1.644E+03  1.297E-27  5.656E-17
1.629E+03  1.349E-27  5.831E-17
1.614E+03  1.404E-27  6.012E-17
1.600E+03  1.461E-27  6.198E-17
1.585E+03  1.520E-27  6.390E-17
1.570E+03  1.581E-27  6.588E-17
1.556E+03  1.646E-27  6.792E-17
1.542E+03  1.712E-27  7.002E-17
1.528E+03  1.782E-27  7.219E-17
1.514E+03  1.854E-27  7.443E-17
1.500E+03  1.929E-27  7.673E-17
1.486E+03  2.007E-27  7.911E-17
1.472E+03  2.089E-27  8.157E-17
1.459E+03  2.173E-27  8.410E-17
1.445E+03  2.262E-27  8.671E-17
1.432E+03  2.353E-27  8.940E-17
1.419E+03  2.449E-27  9.218E-17
1.406E+03  2.548E-27  9.504E-17
1.393E+03  2.652E-27  9.800E-17
1.380E+03  2.759E-27  1.010E-16
1.368E+03  2.872E-27  1.042E-16
1.355E+03  2.988E-27  1.074E-16
1.343E+03  3.109E-27  1.108E-16
1.330E+03  3.236E-27  1.142E-16
1.318E+03  3.367E-27  1.177E-16
1.306E+03  3.504E-27  1.214E-16
1.294E+03  3.646E-27  1.252E-16
1.282E+03  3.794E-27  1.291E-16
1.271E+03  3.948E-27  1.331E-16
1.259E+03  4.109E-27  1.372E-16
1.247E+03  4.275E-27  1.415E-16
1.236E+03  4.449E-27  1.459E-16
1.225E+03  4.629E-27  1.504E-16
1.213E+03  4.817E-27  1.551E-16
1.202E+03  5.013E-27  1.599E-16
1.191E+03  5.216E-27  1.648E-16
1.180E+03  5.428E-27  1.699E-16
1.169E+03  5.648E-27  1.752E-16
1.159E+03  5.877E-27  1.806E-16
1.148E+03  6.115E-27  1.862E-16
1.138E+03  6.363E-27  1.920E-16
1.127E+03  6.621E-27  1.980E-16
1.117E+03  6.889E-27  2.041E-16
1.107E+03  7.168E-27  2.104E-16
1.096E+03  7.458E-27  2.169E-16
1.086E+03  7.760E-27  2.236E-16
1.076E+03  8.074E-27  2.305E-16
1.067E+03  8.400E-27  2.377E-16
1.057E+03  8.740E-27  2.450E-16
1.047E+03  9.093E-27  2.526E-16
1.038E+03  9.460E-27  2.604E-16
1.028E+03  9.842E-27  2.684E-16
1.019E+03  1.024E-26  2.767E-16
1.009E+03  1.065E-26  2.852E-16
1.000E+03  1.108E-26  2.940E-16
9.908E+02  1.153E-26  3.030E-16
9.817E+02  1.200E-26  3.124E-16
9.727E+02  1.248E-26  3.220E-16
9.638E+02  1.298E-26  3.319E-16
9.550E+02  1.351E-26  3.421E-16
9.462E+02  1.405E-26  3.526E-16
9.376E+02  1.462E-26  3.635E-16
9.290E+02  1.520E-26  3.747E-16
9.204E+02  1.582E-26  3.862E-16
9.120E+02  1.645E-26  3.980E-16
9.036E+02  1.711E-26  4.102E-16
8.954E+02  1.780E-26  4.228E-16
8.872E+02  1.851E-26  4.357E-16
8.790E+02  1.926E-26  4.490E-16
8.710E+02  2.003E-26  4.627E-16
8.630E+02  2.083E-26  4.768E-16
8.551E+02  2.166E-26  4.913E-16
8.472E+02  2.253E-26  5.063E-16
8.395E+02  2.343E-26  5.217E-16
8.318E+02  2.436E-26  5.375E-16
8.241E+02  2.533E-26  5.538E-16
8.166E+02  2.634E-26  5.706E-16
8.091E+02  2.739E-26  5.879E-16
8.017E+02  2.848E-26  6.057E-16
7.943E+02  2.961E-26  6.240E-16
7.870E+02  3.079E-26  6.428E-16
7.798E+02  3.201E-26  6.622E-16
7.727E+02  3.328E-26  6.821E-16
7.656E+02  3.460E-26  7.027E-16
7.586E+02  3.597E-26  7.238E-16
7.516E+02  3.739E-26  7.456E-16
7.447E+02  3.888E-26  7.680E-16
7.379E+02  4.042E-26  7.911E-16
7.311E+02  4.202E-26  8.149E-16
7.244E+02  4.368E-26  8.394E-16
7.178E+02  4.541E-26  8.647E-16
7.112E+02  4.721E-26  8.907E-16
7.047E+02  4.908E-26  9.174E-16
6.982E+02  5.102E-26  9.450E-16
6.918E+02  5.304E-26  9.734E-16
6.855E+02  5.514E-26  1.003E-15
6.792E+02  5.732E-26  1.033E-15
6.730E+02  5.958E-26  1.064E-15
6.668E+02  6.192E-26  1.095E-15
6.607E+02  6.436E-26  1.128E-15
6.546E+02  6.690E-26  1.162E-15
6.486E+02  6.955E-26  1.197E-15
6.427E+02  7.230E-26  1.233E-15
6.368E+02  7.516E-26  1.270E-15
6.310E+02  7.814E-26  1.308E-15
6.252E+02  8.122E-26  1.347E-15
6.194E+02  8.444E-26  1.387E-15
6.138E+02  8.777E-26  1.429E-15
6.081E+02  9.124E-26  1.472E-15
6.026E+02  9.485E-26  1.516E-15
5.970E+02  9.860E-26  1.561E-15
5.916E+02  1.025E-25  1.608E-15
5.861E+02  1.065E-25  1.656E-15
5.808E+02  1.107E-25  1.706E-15
5.754E+02  1.151E-25  1.757E-15
5.702E+02  1.197E-25  1.810E-15
5.649E+02  1.244E-25  1.864E-15
5.598E+02  1.293E-25  1.920E-15
5.546E+02  1.344E-25  1.977E-15
5.495E+02  1.397E-25  2.036E-15
5.445E+02  1.452E-25  2.097E-15
5.395E+02  1.509E-25  2.160E-15
5.346E+02  1.569E-25  2.225E-15
5.297E+02  1.631E-25  2.291E-15
5.248E+02  1.695E-25  2.360E-15
5.200E+02  1.762E-25  2.430E-15
5.152E+02  1.831E-25  2.503E-15
5.105E+02  1.903E-25  2.577E-15
5.058E+02  1.978E-25  2.654E-15
5.012E+02  2.056E-25  2.733E-15
4.966E+02  2.137E-25  2.815E-15
4.920E+02  2.221E-25  2.899E-15
4.875E+02  2.308E-25  2.985E-15
4.831E+02  2.399E-25  3.074E-15
4.786E+02  2.493E-25  3.165E-15
4.742E+02  2.591E-25  3.259E-15
4.699E+02  2.692E-25  3.356E-15
4.656E+02  2.798E-25  3.456E-15
4.613E+02  2.908E-25  3.558E-15
4.571E+02  3.022E-25  3.663E-15
4.529E+02  3.140E-25  3.772E-15
4.487E+02  3.263E-25  3.884E-15
4.446E+02  3.390E-25  3.998E-15
4.406E+02  3.522E-25  4.116E-15
4.365E+02  3.660E-25  4.238E-15
4.325E+02  3.803E-25  4.363E-15
4.285E+02  3.951E-25  4.491E-15
4.246E+02  4.105E-25  4.623E-15
4.207E+02  4.264E-25  4.759E-15
4.169E+02  4.430E-25  4.899E-15
4.130E+02  4.603E-25  5.043E-15
4.093E+02  4.781E-25  5.191E-15
4.055E+02  4.967E-25  5.343E-15
4.018E+02  5.160E-25  5.499E-15
3.981E+02  5.360E-25  5.660E-15
3.945E+02  5.568E-25  5.826E-15
3.908E+02  5.783E-25  5.996E-15
3.873E+02  6.007E-25  6.171E-15
3.837E+02  6.239E-25  6.351E-15
3.802E+02  6.480E-25  6.535E-15
3.767E+02  6.731E-25  6.725E-15
3.733E+02  6.990E-25  6.921E-15
3.698E+02  7.259E-25  7.121E-15
3.664E+02  7.539E-25  7.328E-15
3.631E+02  7.828E-25  7.540E-15
3.597E+02  8.129E-25  7.757E-15
3.565E+02  8.441E-25  7.981E-15
3.532E+02  8.764E-25  8.211E-15
3.499E+02  9.099E-25  8.447E-15
3.467E+02  9.447E-25  8.689E-15
3.436E+02  9.808E-25  8.938E-15
3.404E+02  1.018E-24  9.194E-15
3.373E+02  1.057E-24  9.456E-15
3.342E+02  1.097E-24  9.726E-15
3.311E+02  1.139E-24  1.000E-14
3.281E+02  1.182E-24  1.029E-14
3.251E+02  1.227E-24  1.058E-14
3.221E+02  1.273E-24  1.088E-14
3.192E+02  1.321E-24  1.118E-14
3.162E+02  1.371E-24  1.150E-14
3.133E+02  1.422E-24  1.182E-14
3.105E+02  1.476E-24  1.215E-14
3.076E+02  1.531E-24  1.249E-14
3.048E+02  1.589E-24  1.284E-14
3.020E+02  1.648E-24  1.320E-14
2.992E+02  1.709E-24  1.357E-14
2.965E+02  1.773E-24  1.394E-14
2.938E+02  1.839E-24  1.433E-14
2.911E+02  1.907E-24  1.472E-14
2.884E+02  1.978E-24  1.513E-14
2.858E+02  2.051E-24  1.555E-14
2.831E+02  2.126E-24  1.597E-14
2.805E+02  2.205E-24  1.641E-14
2.780E+02  2.286E-24  1.685E-14
2.754E+02  2.369E-24  1.731E-14
2.729E+02  2.456E-24  1.778E-14
2.704E+02  2.546E-24  1.826E-14
2.679E+02  2.639E-24  1.876E-14
2.655E+02  2.736E-24  1.926E-14
2.630E+02  2.835E-24  1.978E-14
2.606E+02  2.938E-24  2.031E-14
2.582E+02  3.045E-24  2.085E-14
2.559E+02  3.154E-24  2.141E-14
2.535E+02  3.267E-24  2.197E-14
2.512E+02  3.383E-24  2.254E-14
2.489E+02  3.501E-24  2.311E-14
2.466E+02  3.621E-24  2.368E-14
2.443E+02  3.743E-24  2.426E-14
2.421E+02  3.869E-24  2.485E-14
2.399E+02  3.998E-24  2.544E-14
2.377E+02  4.128E-24  2.603E-14
2.355E+02  4.263E-24  2.663E-14
2.333E+02  4.401E-24  2.724E-14
2.312E+02  4.543E-24  2.786E-14
2.291E+02  4.688E-24  2.849E-14
2.270E+02  4.838E-24  2.913E-14
2.249E+02  4.992E-24  2.978E-14
2.228E+02  5.151E-24  3.045E-14
2.208E+02  5.314E-24  3.112E-14
2.188E+02  5.481E-24  3.181E-14
2.168E+02  5.652E-24  3.250E-14
2.148E+02  5.829E-24  3.321E-14
2.128E+02  6.010E-24  3.392E-14
2.109E+02  6.195E-24  3.465E-14
2.089E+02  6.386E-24  3.539E-14
2.070E+02  6.581E-24  3.614E-14
2.051E+02  6.781E-24  3.689E-14
2.032E+02  6.986E-24  3.766E-14
2.014E+02  7.197E-24  3.844E-14
1.995E+02  7.413E-24  3.923E-14
1.977E+02  7.634E-24  4.003E-14
1.959E+02  7.861E-24  4.084E-14
1.941E+02  8.093E-24  4.166E-14
1.923E+02  8.331E-24  4.250E-14
1.905E+02  8.575E-24  4.334E-14
1.888E+02  8.825E-24  4.419E-14
1.871E+02  9.080E-24  4.506E-14
1.854E+02  9.342E-24  4.593E-14
1.837E+02  9.611E-24  4.682E-14
1.820E+02  9.886E-24  4.772E-14
1.803E+02  1.017E-23  4.862E-14
1.786E+02  1.045E-23  4.954E-14
1.770E+02  1.075E-23  5.047E-14
1.754E+02  1.105E-23  5.142E-14
1.738E+02  1.136E-23  5.237E-14
1.722E+02  1.168E-23  5.334E-14
1.706E+02  1.200E-23  5.432E-14
1.690E+02  1.233E-23  5.531E-14
1.675E+02  1.267E-23  5.631E-14
1.660E+02  1.302E-23  5.734E-14
1.644E+02  1.338E-23  5.837E-14
1.629E+02  1.375E-23  5.943E-14
1.614E+02  1.413E-23  6.050E-14
1.600E+02  1.451E-23  6.158E-14
1.585E+02  1.491E-23  6.268E-14
1.570E+02  1.532E-23  6.381E-14
1.556E+02  1.574E-23  6.496E-14
1.542E+02  1.617E-23  6.613E-14
1.528E+02  1.662E-23  6.733E-14
1.514E+02  1.707E-23  6.855E-14
1.500E+02  1.754E-23  6.979E-14
1.486E+02  1.802E-23  7.105E-14
1.472E+02  1.852E-23  7.232E-14
1.459E+02  1.902E-23  7.360E-14
1.445E+02  1.953E-23  7.486E-14
1.432E+02  2.003E-23  7.610E-14
1.419E+02  2.053E-23  7.727E-14
1.406E+02  2.101E-23  7.837E-14
1.393E+02  2.147E-23  7.936E-14
1.380E+02  2.191E-23  8.023E-14
1.368E+02  2.232E-23  8.099E-14
1.355E+02  2.271E-23  8.164E-14
1.343E+02  2.309E-23  8.223E-14
1.330E+02  2.346E-23  8.278E-14
1.318E+02  2.382E-23  8.330E-14
1.306E+02  2.419E-23  8.382E-14
1.294E+02  2.457E-23  8.434E-14
1.282E+02  2.495E-23  8.487E-14
1.271E+02  2.534E-23  8.541E-14
1.259E+02  2.574E-23  8.597E-14
1.247E+02  2.616E-23  8.654E-14
1.236E+02  2.658E-23  8.713E-14
1.225E+02  2.701E-23  8.773E-14
1.213E+02  2.745E-23  8.834E-14
1.202E+02  2.790E-23  8.896E-14
1.191E+02  2.835E-23  8.958E-14
1.180E+02  2.881E-23  9.021E-14
1.169E+02  2.928E-23  9.083E-14
1.159E+02  2.975E-23  9.144E-14
1.148E+02  3.023E-23  9.206E-14
1.138E+02  3.071E-23  9.268E-14
1.127E+02  3.120E-23  9.329E-14
1.117E+02  3.170E-23  9.391E-14
1.107E+02  3.220E-23  9.452E-14
1.096E+02  3.271E-23  9.513E-14
1.086E+02  3.322E-23  9.573E-14
1.076E+02  3.373E-23  9.631E-14
1.067E+02  3.425E-23  9.689E-14
1.057E+02  3.477E-23  9.746E-14
1.047E+02  3.529E-23  9.802E-14
1.038E+02  3.581E-23  9.857E-14
1.028E+02  3.634E-23  9.909E-14
1.019E+02  3.686E-23  9.959E-14
1.009E+02  3.738E-23  1.001E-13
1.000E+02  3.791E-23  1.006E-13
9.908E+01  3.843E-23  1.010E-13
9.817E+01  3.895E-23  1.014E-13
9.727E+01  3.947E-23  1.018E-13
9.638E+01  3.999E-23  1.022E-13
9.550E+01  4.051E-23  1.026E-13
9.462E+01  4.102E-23  1.030E-13
9.376E+01  4.153E-23  1.033E-13
9.290E+01  4.204E-23  1.036E-13
9.204E+01  4.255E-23  1.039E-13
9.120E+01  4.305E-23  1.041E-13
9.036E+01  4.354E-23  1.044E-13
8.954E+01  4.404E-23  1.046E-13
8.872E+01  4.453E-23  1.048E-13
8.790E+01  4.501E-23  1.050E-13
8.710E+01  4.549E-23  1.051E-13
8.630E+01  4.597E-23  1.052E-13
8.551E+01  4.645E-23  1.053E-13
8.472E+01  4.690E-23  1.054E-13
8.395E+01  4.736E-23  1.055E-13
8.318E+01  4.782E-23  1.055E-13
8.241E+01  4.826E-23  1.055E-13
8.166E+01  4.870E-23  1.055E-13
8.091E+01  4.914E-23  1.055E-13
8.017E+01  4.957E-23  1.054E-13
7.943E+01  4.999E-23  1.053E-13
7.870E+01  5.040E-23  1.052E-13
7.798E+01  5.080E-23  1.051E-13
7.727E+01  5.119E-23  1.049E-13
7.656E+01  5.158E-23  1.047E-13
7.586E+01  5.195E-23  1.045E-13
7.516E+01  5.232E-23  1.043E-13
7.447E+01  5.267E-23  1.041E-13
7.379E+01  5.301E-23  1.038E-13
7.311E+01  5.334E-23  1.034E-13
7.244E+01  5.365E-23  1.031E-13
7.178E+01  5.396E-23  1.027E-13
7.112E+01  5.426E-23  1.024E-13
7.047E+01  5.455E-23  1.020E-13
6.982E+01  5.483E-23  1.016E-13
6.918E+01  5.511E-23  1.011E-13
6.855E+01  5.536E-23  1.007E-13
6.792E+01  5.561E-23  1.002E-13
6.730E+01  5.584E-23  9.968E-14
6.668E+01  5.607E-23  9.917E-14
6.607E+01  5.628E-23  9.863E-14
6.546E+01  5.647E-23  9.806E-14
6.486E+01  5.666E-23  9.749E-14
6.427E+01  5.684E-23  9.689E-14
6.368E+01  5.700E-23  9.628E-14
6.310E+01  5.715E-23  9.565E-14
6.252E+01  5.730E-23  9.501E-14
6.194E+01  5.743E-23  9.436E-14
6.138E+01  5.755E-23  9.369E-14
6.081E+01  5.766E-23  9.301E-14
6.026E+01  5.775E-23  9.231E-14
5.970E+01  5.783E-23  9.159E-14
5.916E+01  5.791E-23  9.087E-14
5.861E+01  5.796E-23  9.012E-14
5.808E+01  5.801E-23  8.936E-14
5.754E+01  5.805E-23  8.860E-14
5.702E+01  5.807E-23  8.783E-14
5.649E+01  5.809E-23  8.705E-14
5.598E+01  5.809E-23  8.626E-14
5.546E+01  5.809E-23  8.546E-14
5.495E+01  5.808E-23  8.466E-14
5.445E+01  5.805E-23  8.385E-14
5.395E+01  5.802E-23  8.303E-14
5.346E+01  5.798E-23  8.221E-14
5.297E+01  5.792E-23  8.138E-14
5.248E+01  5.786E-23  8.055E-14
5.200E+01  5.779E-23  7.971E-14
5.152E+01  5.771E-23  7.887E-14
5.105E+01  5.761E-23  7.801E-14
5.058E+01  5.751E-23  7.716E-14
5.012E+01  5.740E-23  7.630E-14
4.966E+01  5.727E-23  7.544E-14
