Dust emission from Draine & Li (2007): ApJ 657, 810-837
================================================================
         6 = grain model
 4.000E-08 4.000E-01 3.750E-05 = a_01 (cm) , sigma_1 , b_C1/0.92
 2.500E-07 4.000E-01 1.250E-05 = a_02 (cm) , sigma_2 , b_C2/0.92
 1.200E+00 1.000E+03 2.000E+00 = Umin , Umax, beta (dN/dU propto U^{-beta})
 8.080E+00 = <U> 
     mmp83 = radfield
 3.645E-23 = power/H (erg s-1)
 band   nu*P_nu(band) j_nu(band)
 (um)   (erg s-1 H-1)(Jy cm2 sr-1 H-1)
1.270E+00  1.229E-25  4.139E-18 COBE-DIRBE
2.220E+00  1.566E-25  9.223E-18 COBE-DIRBE
3.530E+00  1.026E-24  9.606E-17 COBE-DIRBE
4.880E+00  4.763E-25  6.166E-17 COBE-DIRBE
1.229E+01  4.246E-24  1.384E-15 COBE-DIRBE
2.079E+01  3.666E-24  2.022E-15 COBE-DIRBE
5.599E+01  1.856E-23  2.756E-14 COBE-DIRBE
9.770E+01  1.562E-23  4.047E-14 COBE-DIRBE
1.479E+02  9.107E-24  3.573E-14 COBE-DIRBE
2.479E+02  2.468E-24  1.622E-14 COBE-DIRBE
1.200E+01  4.478E-24  1.425E-15 IRAS
2.500E+01  4.019E-24  2.665E-15 IRAS
6.000E+01  1.851E-23  2.946E-14 IRAS
1.000E+02  1.527E-23  4.050E-14 IRAS
3.550E+00  1.193E-24  1.124E-16 SST-IRAC
4.493E+00  3.335E-25  3.975E-17 SST-IRAC
5.731E+00  2.825E-24  4.295E-16 SST-IRAC
7.872E+00  6.551E-24  1.368E-15 SST-IRAC
2.368E+01  3.409E-24  2.142E-15 SST-MIPS
7.142E+01  1.720E-23  3.258E-14 SST-MIPS
1.559E+02  7.696E-24  3.183E-14 SST-MIPS
1.600E+01  3.520E-24  1.494E-15 SST-IRSPU
2.200E+01  3.494E-24  2.039E-15 SST-IRSPU











lambda    nu*dP/dnu     j_nu
 (um)   (erg s-1 H-1)(Jy cm2 sr-1 H-1)
1.000E+04  6.590E-31  1.748E-19
9.908E+03  6.831E-31  1.795E-19
9.817E+03  7.081E-31  1.844E-19
9.727E+03  7.340E-31  1.894E-19
9.638E+03  7.608E-31  1.945E-19
9.550E+03  7.886E-31  1.998E-19
9.462E+03  8.175E-31  2.052E-19
9.376E+03  8.474E-31  2.107E-19
9.290E+03  8.784E-31  2.165E-19
9.204E+03  9.105E-31  2.223E-19
9.120E+03  9.438E-31  2.283E-19
9.036E+03  9.784E-31  2.345E-19
8.954E+03  1.014E-30  2.408E-19
8.872E+03  1.051E-30  2.473E-19
8.790E+03  1.089E-30  2.540E-19
8.710E+03  1.129E-30  2.608E-19
8.630E+03  1.170E-30  2.678E-19
8.551E+03  1.213E-30  2.751E-19
8.472E+03  1.257E-30  2.825E-19
8.395E+03  1.303E-30  2.901E-19
8.318E+03  1.350E-30  2.979E-19
8.241E+03  1.400E-30  3.060E-19
8.166E+03  1.451E-30  3.143E-19
8.091E+03  1.504E-30  3.228E-19
8.017E+03  1.559E-30  3.316E-19
7.943E+03  1.616E-30  3.406E-19
7.870E+03  1.676E-30  3.498E-19
7.798E+03  1.737E-30  3.593E-19
7.727E+03  1.801E-30  3.691E-19
7.656E+03  1.867E-30  3.792E-19
7.586E+03  1.936E-30  3.895E-19
7.516E+03  2.007E-30  4.001E-19
7.447E+03  2.081E-30  4.111E-19
7.379E+03  2.157E-30  4.223E-19
7.311E+03  2.237E-30  4.338E-19
7.244E+03  2.319E-30  4.457E-19
7.178E+03  2.405E-30  4.579E-19
7.112E+03  2.494E-30  4.705E-19
7.047E+03  2.586E-30  4.834E-19
6.982E+03  2.681E-30  4.966E-19
6.918E+03  2.780E-30  5.103E-19
6.855E+03  2.883E-30  5.242E-19
6.792E+03  2.990E-30  5.386E-19
6.730E+03  3.100E-30  5.534E-19
6.668E+03  3.215E-30  5.687E-19
6.607E+03  3.334E-30  5.843E-19
6.546E+03  3.458E-30  6.004E-19
6.486E+03  3.586E-30  6.170E-19
6.427E+03  3.719E-30  6.340E-19
6.368E+03  3.857E-30  6.515E-19
6.310E+03  4.000E-30  6.695E-19
6.252E+03  4.149E-30  6.880E-19
6.194E+03  4.303E-30  7.071E-19
6.138E+03  4.463E-30  7.267E-19
6.081E+03  4.630E-30  7.468E-19
6.026E+03  4.802E-30  7.676E-19
5.970E+03  4.981E-30  7.889E-19
5.916E+03  5.167E-30  8.108E-19
5.861E+03  5.360E-30  8.334E-19
5.808E+03  5.561E-30  8.566E-19
5.754E+03  5.768E-30  8.805E-19
5.702E+03  5.984E-30  9.051E-19
5.649E+03  6.208E-30  9.303E-19
5.598E+03  6.441E-30  9.563E-19
5.546E+03  6.682E-30  9.831E-19
5.495E+03  6.933E-30  1.011E-18
5.445E+03  7.193E-30  1.039E-18
5.395E+03  7.463E-30  1.068E-18
5.346E+03  7.743E-30  1.098E-18
5.297E+03  8.034E-30  1.129E-18
5.248E+03  8.337E-30  1.161E-18
5.200E+03  8.650E-30  1.193E-18
5.152E+03  8.976E-30  1.227E-18
5.105E+03  9.314E-30  1.261E-18
5.058E+03  9.665E-30  1.297E-18
5.012E+03  1.003E-29  1.333E-18
4.966E+03  1.041E-29  1.371E-18
4.920E+03  1.080E-29  1.410E-18
4.875E+03  1.121E-29  1.449E-18
4.831E+03  1.163E-29  1.490E-18
4.786E+03  1.207E-29  1.533E-18
4.742E+03  1.253E-29  1.576E-18
4.699E+03  1.300E-29  1.621E-18
4.656E+03  1.350E-29  1.667E-18
4.613E+03  1.401E-29  1.714E-18
4.571E+03  1.454E-29  1.763E-18
4.529E+03  1.509E-29  1.813E-18
4.487E+03  1.566E-29  1.864E-18
4.446E+03  1.626E-29  1.918E-18
4.406E+03  1.688E-29  1.972E-18
4.365E+03  1.752E-29  2.029E-18
4.325E+03  1.819E-29  2.086E-18
4.285E+03  1.888E-29  2.146E-18
4.246E+03  1.960E-29  2.208E-18
4.207E+03  2.035E-29  2.271E-18
4.169E+03  2.112E-29  2.336E-18
4.130E+03  2.193E-29  2.403E-18
4.093E+03  2.277E-29  2.472E-18
4.055E+03  2.364E-29  2.543E-18
4.018E+03  2.454E-29  2.616E-18
3.981E+03  2.548E-29  2.691E-18
3.945E+03  2.646E-29  2.768E-18
3.908E+03  2.747E-29  2.848E-18
3.873E+03  2.852E-29  2.930E-18
3.837E+03  2.962E-29  3.014E-18
3.802E+03  3.075E-29  3.101E-18
3.767E+03  3.193E-29  3.191E-18
3.733E+03  3.316E-29  3.283E-18
3.698E+03  3.444E-29  3.378E-18
3.664E+03  3.576E-29  3.476E-18
3.631E+03  3.714E-29  3.577E-18
3.597E+03  3.857E-29  3.681E-18
3.565E+03  4.006E-29  3.787E-18
3.532E+03  4.160E-29  3.898E-18
3.499E+03  4.321E-29  4.011E-18
3.467E+03  4.488E-29  4.128E-18
3.436E+03  4.662E-29  4.248E-18
3.404E+03  4.842E-29  4.372E-18
3.373E+03  5.029E-29  4.500E-18
3.342E+03  5.224E-29  4.631E-18
3.311E+03  5.427E-29  4.767E-18
3.281E+03  5.638E-29  4.906E-18
3.251E+03  5.857E-29  5.050E-18
3.221E+03  6.084E-29  5.198E-18
3.192E+03  6.321E-29  5.351E-18
3.162E+03  6.567E-29  5.508E-18
3.133E+03  6.822E-29  5.670E-18
3.105E+03  7.088E-29  5.837E-18
3.076E+03  7.364E-29  6.009E-18
3.048E+03  7.652E-29  6.186E-18
3.020E+03  7.950E-29  6.369E-18
2.992E+03  8.260E-29  6.556E-18
2.965E+03  8.582E-29  6.749E-18
2.938E+03  8.917E-29  6.948E-18
2.911E+03  9.264E-29  7.153E-18
2.884E+03  9.626E-29  7.364E-18
2.858E+03  1.000E-28  7.582E-18
2.831E+03  1.039E-28  7.806E-18
2.805E+03  1.080E-28  8.037E-18
2.780E+03  1.122E-28  8.275E-18
2.754E+03  1.166E-28  8.520E-18
2.729E+03  1.212E-28  8.773E-18
2.704E+03  1.259E-28  9.033E-18
2.679E+03  1.309E-28  9.301E-18
2.655E+03  1.360E-28  9.578E-18
2.630E+03  1.414E-28  9.863E-18
2.606E+03  1.469E-28  1.016E-17
2.582E+03  1.527E-28  1.046E-17
2.559E+03  1.587E-28  1.077E-17
2.535E+03  1.650E-28  1.109E-17
2.512E+03  1.715E-28  1.143E-17
2.489E+03  1.782E-28  1.177E-17
2.466E+03  1.853E-28  1.212E-17
2.443E+03  1.926E-28  1.248E-17
2.421E+03  2.002E-28  1.286E-17
2.399E+03  2.081E-28  1.324E-17
2.377E+03  2.163E-28  1.364E-17
2.355E+03  2.249E-28  1.405E-17
2.333E+03  2.338E-28  1.447E-17
2.312E+03  2.431E-28  1.491E-17
2.291E+03  2.527E-28  1.536E-17
2.270E+03  2.627E-28  1.582E-17
2.249E+03  2.731E-28  1.629E-17
2.228E+03  2.840E-28  1.679E-17
2.208E+03  2.952E-28  1.729E-17
2.188E+03  3.070E-28  1.781E-17
2.168E+03  3.192E-28  1.835E-17
2.148E+03  3.319E-28  1.891E-17
2.128E+03  3.451E-28  1.948E-17
2.109E+03  3.588E-28  2.007E-17
2.089E+03  3.731E-28  2.068E-17
2.070E+03  3.879E-28  2.130E-17
2.051E+03  4.034E-28  2.195E-17
2.032E+03  4.194E-28  2.261E-17
2.014E+03  4.361E-28  2.330E-17
1.995E+03  4.535E-28  2.400E-17
1.977E+03  4.716E-28  2.473E-17
1.959E+03  4.904E-28  2.548E-17
1.941E+03  5.100E-28  2.626E-17
1.923E+03  5.303E-28  2.705E-17
1.905E+03  5.515E-28  2.787E-17
1.888E+03  5.735E-28  2.872E-17
1.871E+03  5.964E-28  2.959E-17
1.854E+03  6.202E-28  3.049E-17
1.837E+03  6.450E-28  3.142E-17
1.820E+03  6.708E-28  3.238E-17
1.803E+03  6.976E-28  3.337E-17
1.786E+03  7.255E-28  3.438E-17
1.770E+03  7.546E-28  3.543E-17
1.754E+03  7.848E-28  3.651E-17
1.738E+03  8.162E-28  3.762E-17
1.722E+03  8.488E-28  3.877E-17
1.706E+03  8.828E-28  3.995E-17
1.690E+03  9.182E-28  4.117E-17
1.675E+03  9.550E-28  4.243E-17
1.660E+03  9.932E-28  4.372E-17
1.644E+03  1.033E-27  4.506E-17
1.629E+03  1.074E-27  4.643E-17
1.614E+03  1.117E-27  4.785E-17
1.600E+03  1.162E-27  4.931E-17
1.585E+03  1.209E-27  5.082E-17
1.570E+03  1.257E-27  5.237E-17
1.556E+03  1.308E-27  5.397E-17
1.542E+03  1.360E-27  5.562E-17
1.528E+03  1.415E-27  5.732E-17
1.514E+03  1.471E-27  5.907E-17
1.500E+03  1.530E-27  6.087E-17
1.486E+03  1.592E-27  6.273E-17
1.472E+03  1.655E-27  6.465E-17
1.459E+03  1.722E-27  6.663E-17
1.445E+03  1.791E-27  6.867E-17
1.432E+03  1.863E-27  7.077E-17
1.419E+03  1.938E-27  7.293E-17
1.406E+03  2.015E-27  7.516E-17
1.393E+03  2.096E-27  7.746E-17
1.380E+03  2.180E-27  7.983E-17
1.368E+03  2.268E-27  8.227E-17
1.355E+03  2.359E-27  8.479E-17
1.343E+03  2.453E-27  8.738E-17
1.330E+03  2.552E-27  9.005E-17
1.318E+03  2.654E-27  9.280E-17
1.306E+03  2.760E-27  9.564E-17
1.294E+03  2.871E-27  9.856E-17
1.282E+03  2.986E-27  1.016E-16
1.271E+03  3.106E-27  1.047E-16
1.259E+03  3.230E-27  1.079E-16
1.247E+03  3.359E-27  1.112E-16
1.236E+03  3.494E-27  1.145E-16
1.225E+03  3.634E-27  1.180E-16
1.213E+03  3.779E-27  1.216E-16
1.202E+03  3.930E-27  1.253E-16
1.191E+03  4.087E-27  1.292E-16
1.180E+03  4.251E-27  1.331E-16
1.169E+03  4.421E-27  1.371E-16
1.159E+03  4.597E-27  1.413E-16
1.148E+03  4.781E-27  1.456E-16
1.138E+03  4.972E-27  1.500E-16
1.127E+03  5.170E-27  1.546E-16
1.117E+03  5.376E-27  1.593E-16
1.107E+03  5.591E-27  1.641E-16
1.096E+03  5.813E-27  1.691E-16
1.086E+03  6.045E-27  1.742E-16
1.076E+03  6.286E-27  1.795E-16
1.067E+03  6.536E-27  1.849E-16
1.057E+03  6.796E-27  1.905E-16
1.047E+03  7.066E-27  1.963E-16
1.038E+03  7.347E-27  2.022E-16
1.028E+03  7.638E-27  2.083E-16
1.019E+03  7.941E-27  2.146E-16
1.009E+03  8.256E-27  2.210E-16
1.000E+03  8.583E-27  2.277E-16
9.908E+02  8.924E-27  2.345E-16
9.817E+02  9.278E-27  2.416E-16
9.727E+02  9.646E-27  2.489E-16
9.638E+02  1.003E-26  2.564E-16
9.550E+02  1.042E-26  2.641E-16
9.462E+02  1.084E-26  2.720E-16
9.376E+02  1.127E-26  2.802E-16
9.290E+02  1.171E-26  2.886E-16
9.204E+02  1.217E-26  2.972E-16
9.120E+02  1.265E-26  3.061E-16
9.036E+02  1.315E-26  3.152E-16
8.954E+02  1.367E-26  3.246E-16
8.872E+02  1.421E-26  3.343E-16
8.790E+02  1.476E-26  3.443E-16
8.710E+02  1.534E-26  3.545E-16
8.630E+02  1.595E-26  3.650E-16
8.551E+02  1.657E-26  3.758E-16
8.472E+02  1.722E-26  3.870E-16
8.395E+02  1.789E-26  3.984E-16
8.318E+02  1.859E-26  4.102E-16
8.241E+02  1.932E-26  4.222E-16
8.166E+02  2.007E-26  4.347E-16
8.091E+02  2.085E-26  4.475E-16
8.017E+02  2.166E-26  4.606E-16
7.943E+02  2.250E-26  4.741E-16
7.870E+02  2.337E-26  4.880E-16
7.798E+02  2.428E-26  5.023E-16
7.727E+02  2.522E-26  5.169E-16
7.656E+02  2.620E-26  5.320E-16
7.586E+02  2.721E-26  5.475E-16
7.516E+02  2.826E-26  5.634E-16
7.447E+02  2.935E-26  5.799E-16
7.379E+02  3.049E-26  5.967E-16
7.311E+02  3.167E-26  6.141E-16
7.244E+02  3.289E-26  6.320E-16
7.178E+02  3.416E-26  6.504E-16
7.112E+02  3.548E-26  6.693E-16
7.047E+02  3.684E-26  6.887E-16
6.982E+02  3.826E-26  7.087E-16
6.918E+02  3.974E-26  7.292E-16
6.855E+02  4.127E-26  7.503E-16
6.792E+02  4.285E-26  7.721E-16
6.730E+02  4.450E-26  7.943E-16
6.668E+02  4.620E-26  8.172E-16
6.607E+02  4.797E-26  8.407E-16
6.546E+02  4.981E-26  8.649E-16
6.486E+02  5.172E-26  8.899E-16
6.427E+02  5.371E-26  9.157E-16
6.368E+02  5.577E-26  9.421E-16
6.310E+02  5.791E-26  9.693E-16
6.252E+02  6.014E-26  9.972E-16
6.194E+02  6.244E-26  1.026E-15
6.138E+02  6.483E-26  1.056E-15
6.081E+02  6.732E-26  1.086E-15
6.026E+02  6.989E-26  1.117E-15
5.970E+02  7.257E-26  1.149E-15
5.916E+02  7.534E-26  1.182E-15
5.861E+02  7.822E-26  1.216E-15
5.808E+02  8.121E-26  1.251E-15
5.754E+02  8.431E-26  1.287E-15
5.702E+02  8.753E-26  1.324E-15
5.649E+02  9.087E-26  1.362E-15
5.598E+02  9.434E-26  1.401E-15
5.546E+02  9.793E-26  1.441E-15
5.495E+02  1.017E-25  1.482E-15
5.445E+02  1.055E-25  1.524E-15
5.395E+02  1.095E-25  1.568E-15
5.346E+02  1.137E-25  1.612E-15
5.297E+02  1.180E-25  1.658E-15
5.248E+02  1.225E-25  1.705E-15
5.200E+02  1.272E-25  1.754E-15
5.152E+02  1.320E-25  1.804E-15
5.105E+02  1.370E-25  1.855E-15
5.058E+02  1.422E-25  1.907E-15
5.012E+02  1.475E-25  1.961E-15
4.966E+02  1.531E-25  2.017E-15
4.920E+02  1.589E-25  2.074E-15
4.875E+02  1.649E-25  2.132E-15
4.831E+02  1.711E-25  2.192E-15
4.786E+02  1.775E-25  2.254E-15
4.742E+02  1.842E-25  2.317E-15
4.699E+02  1.911E-25  2.382E-15
4.656E+02  1.983E-25  2.449E-15
4.613E+02  2.058E-25  2.518E-15
4.571E+02  2.135E-25  2.588E-15
4.529E+02  2.215E-25  2.660E-15
4.487E+02  2.297E-25  2.735E-15
4.446E+02  2.383E-25  2.811E-15
4.406E+02  2.472E-25  2.889E-15
4.365E+02  2.564E-25  2.969E-15
4.325E+02  2.659E-25  3.051E-15
4.285E+02  2.758E-25  3.135E-15
4.246E+02  2.860E-25  3.222E-15
4.207E+02  2.966E-25  3.310E-15
4.169E+02  3.076E-25  3.402E-15
4.130E+02  3.190E-25  3.495E-15
4.093E+02  3.308E-25  3.591E-15
4.055E+02  3.430E-25  3.689E-15
4.018E+02  3.556E-25  3.790E-15
3.981E+02  3.687E-25  3.893E-15
3.945E+02  3.822E-25  3.999E-15
3.908E+02  3.963E-25  4.108E-15
3.873E+02  4.108E-25  4.220E-15
3.837E+02  4.258E-25  4.334E-15
3.802E+02  4.414E-25  4.451E-15
3.767E+02  4.575E-25  4.571E-15
3.733E+02  4.741E-25  4.694E-15
3.698E+02  4.914E-25  4.820E-15
3.664E+02  5.092E-25  4.949E-15
3.631E+02  5.277E-25  5.082E-15
3.597E+02  5.467E-25  5.217E-15
3.565E+02  5.665E-25  5.356E-15
3.532E+02  5.869E-25  5.498E-15
3.499E+02  6.080E-25  5.644E-15
3.467E+02  6.298E-25  5.793E-15
3.436E+02  6.524E-25  5.945E-15
3.404E+02  6.757E-25  6.101E-15
3.373E+02  6.998E-25  6.261E-15
3.342E+02  7.247E-25  6.425E-15
3.311E+02  7.505E-25  6.592E-15
3.281E+02  7.771E-25  6.763E-15
3.251E+02  8.045E-25  6.938E-15
3.221E+02  8.329E-25  7.117E-15
3.192E+02  8.623E-25  7.300E-15
3.162E+02  8.925E-25  7.487E-15
3.133E+02  9.238E-25  7.678E-15
3.105E+02  9.561E-25  7.873E-15
3.076E+02  9.894E-25  8.073E-15
3.048E+02  1.024E-24  8.277E-15
3.020E+02  1.059E-24  8.486E-15
2.992E+02  1.096E-24  8.699E-15
2.965E+02  1.134E-24  8.916E-15
2.938E+02  1.173E-24  9.138E-15
2.911E+02  1.213E-24  9.365E-15
2.884E+02  1.254E-24  9.596E-15
2.858E+02  1.297E-24  9.832E-15
2.831E+02  1.341E-24  1.007E-14
2.805E+02  1.387E-24  1.032E-14
2.780E+02  1.434E-24  1.057E-14
2.754E+02  1.482E-24  1.083E-14
2.729E+02  1.532E-24  1.109E-14
2.704E+02  1.583E-24  1.136E-14
2.679E+02  1.636E-24  1.163E-14
2.655E+02  1.691E-24  1.191E-14
2.630E+02  1.747E-24  1.219E-14
2.606E+02  1.805E-24  1.248E-14
2.582E+02  1.865E-24  1.277E-14
2.559E+02  1.926E-24  1.307E-14
2.535E+02  1.989E-24  1.337E-14
2.512E+02  2.053E-24  1.368E-14
2.489E+02  2.118E-24  1.398E-14
2.466E+02  2.183E-24  1.428E-14
2.443E+02  2.250E-24  1.458E-14
2.421E+02  2.318E-24  1.489E-14
2.399E+02  2.388E-24  1.519E-14
2.377E+02  2.458E-24  1.550E-14
2.355E+02  2.530E-24  1.580E-14
2.333E+02  2.603E-24  1.611E-14
2.312E+02  2.678E-24  1.643E-14
2.291E+02  2.755E-24  1.674E-14
2.270E+02  2.834E-24  1.706E-14
2.249E+02  2.914E-24  1.739E-14
2.228E+02  2.997E-24  1.771E-14
2.208E+02  3.081E-24  1.805E-14
2.188E+02  3.167E-24  1.838E-14
2.168E+02  3.255E-24  1.872E-14
2.148E+02  3.345E-24  1.906E-14
2.128E+02  3.437E-24  1.940E-14
2.109E+02  3.530E-24  1.975E-14
2.089E+02  3.626E-24  2.010E-14
2.070E+02  3.724E-24  2.045E-14
2.051E+02  3.823E-24  2.080E-14
2.032E+02  3.925E-24  2.116E-14
2.014E+02  4.029E-24  2.152E-14
1.995E+02  4.134E-24  2.188E-14
1.977E+02  4.242E-24  2.225E-14
1.959E+02  4.352E-24  2.261E-14
1.941E+02  4.464E-24  2.298E-14
1.923E+02  4.578E-24  2.335E-14
1.905E+02  4.694E-24  2.373E-14
1.888E+02  4.813E-24  2.410E-14
1.871E+02  4.934E-24  2.448E-14
1.854E+02  5.057E-24  2.486E-14
1.837E+02  5.182E-24  2.524E-14
1.820E+02  5.310E-24  2.563E-14
1.803E+02  5.440E-24  2.602E-14
1.786E+02  5.572E-24  2.640E-14
1.770E+02  5.707E-24  2.680E-14
1.754E+02  5.845E-24  2.719E-14
1.738E+02  5.985E-24  2.759E-14
1.722E+02  6.127E-24  2.799E-14
1.706E+02  6.273E-24  2.839E-14
1.690E+02  6.421E-24  2.879E-14
1.675E+02  6.572E-24  2.920E-14
1.660E+02  6.726E-24  2.961E-14
1.644E+02  6.884E-24  3.003E-14
1.629E+02  7.045E-24  3.045E-14
1.614E+02  7.209E-24  3.087E-14
1.600E+02  7.376E-24  3.130E-14
1.585E+02  7.548E-24  3.173E-14
1.570E+02  7.723E-24  3.217E-14
1.556E+02  7.903E-24  3.262E-14
1.542E+02  8.087E-24  3.307E-14
1.528E+02  8.276E-24  3.354E-14
1.514E+02  8.470E-24  3.400E-14
1.500E+02  8.667E-24  3.448E-14
1.486E+02  8.868E-24  3.496E-14
1.472E+02  9.074E-24  3.544E-14
1.459E+02  9.280E-24  3.591E-14
1.445E+02  9.487E-24  3.638E-14
1.432E+02  9.692E-24  3.682E-14
1.419E+02  9.889E-24  3.722E-14
1.406E+02  1.008E-23  3.759E-14
1.393E+02  1.025E-23  3.789E-14
1.380E+02  1.041E-23  3.813E-14
1.368E+02  1.056E-23  3.831E-14
1.355E+02  1.069E-23  3.844E-14
1.343E+02  1.082E-23  3.853E-14
1.330E+02  1.094E-23  3.860E-14
1.318E+02  1.106E-23  3.866E-14
1.306E+02  1.117E-23  3.872E-14
1.294E+02  1.129E-23  3.877E-14
1.282E+02  1.141E-23  3.883E-14
1.271E+02  1.154E-23  3.889E-14
1.259E+02  1.166E-23  3.895E-14
1.247E+02  1.179E-23  3.903E-14
1.236E+02  1.193E-23  3.911E-14
1.225E+02  1.206E-23  3.919E-14
1.213E+02  1.220E-23  3.928E-14
1.202E+02  1.234E-23  3.937E-14
1.191E+02  1.249E-23  3.946E-14
1.180E+02  1.263E-23  3.955E-14
1.169E+02  1.278E-23  3.964E-14
1.159E+02  1.292E-23  3.972E-14
1.148E+02  1.307E-23  3.980E-14
1.138E+02  1.322E-23  3.989E-14
1.127E+02  1.337E-23  3.997E-14
1.117E+02  1.352E-23  4.005E-14
1.107E+02  1.367E-23  4.013E-14
1.096E+02  1.382E-23  4.020E-14
1.086E+02  1.398E-23  4.027E-14
1.076E+02  1.413E-23  4.034E-14
1.067E+02  1.428E-23  4.040E-14
1.057E+02  1.443E-23  4.046E-14
1.047E+02  1.458E-23  4.051E-14
1.038E+02  1.474E-23  4.055E-14
1.028E+02  1.489E-23  4.059E-14
1.019E+02  1.503E-23  4.062E-14
1.009E+02  1.518E-23  4.064E-14
1.000E+02  1.533E-23  4.065E-14
9.908E+01  1.547E-23  4.065E-14
9.817E+01  1.561E-23  4.065E-14
9.727E+01  1.575E-23  4.064E-14
9.638E+01  1.589E-23  4.062E-14
9.550E+01  1.603E-23  4.060E-14
9.462E+01  1.616E-23  4.057E-14
9.376E+01  1.629E-23  4.052E-14
9.290E+01  1.642E-23  4.047E-14
9.204E+01  1.655E-23  4.041E-14
9.120E+01  1.668E-23  4.035E-14
9.036E+01  1.680E-23  4.027E-14
8.954E+01  1.692E-23  4.019E-14
8.872E+01  1.704E-23  4.010E-14
8.790E+01  1.716E-23  4.001E-14
8.710E+01  1.727E-23  3.990E-14
8.630E+01  1.738E-23  3.979E-14
8.551E+01  1.749E-23  3.968E-14
8.472E+01  1.759E-23  3.954E-14
8.395E+01  1.770E-23  3.941E-14
8.318E+01  1.780E-23  3.927E-14
8.241E+01  1.789E-23  3.912E-14
8.166E+01  1.799E-23  3.897E-14
8.091E+01  1.808E-23  3.881E-14
8.017E+01  1.817E-23  3.864E-14
7.943E+01  1.826E-23  3.847E-14
7.870E+01  1.834E-23  3.829E-14
7.798E+01  1.842E-23  3.810E-14
7.727E+01  1.850E-23  3.791E-14
7.656E+01  1.857E-23  3.771E-14
7.586E+01  1.864E-23  3.750E-14
7.516E+01  1.870E-23  3.729E-14
7.447E+01  1.877E-23  3.707E-14
7.379E+01  1.882E-23  3.684E-14
7.311E+01  1.887E-23  3.661E-14
7.244E+01  1.892E-23  3.636E-14
7.178E+01  1.897E-23  3.611E-14
7.112E+01  1.901E-23  3.586E-14
7.047E+01  1.905E-23  3.561E-14
6.982E+01  1.909E-23  3.536E-14
6.918E+01  1.913E-23  3.510E-14
6.855E+01  1.916E-23  3.483E-14
6.792E+01  1.918E-23  3.456E-14
6.730E+01  1.921E-23  3.428E-14
6.668E+01  1.923E-23  3.401E-14
6.607E+01  1.924E-23  3.373E-14
6.546E+01  1.926E-23  3.344E-14
6.486E+01  1.927E-23  3.315E-14
6.427E+01  1.927E-23  3.286E-14
6.368E+01  1.928E-23  3.256E-14
6.310E+01  1.928E-23  3.226E-14
6.252E+01  1.927E-23  3.196E-14
6.194E+01  1.927E-23  3.166E-14
6.138E+01  1.926E-23  3.136E-14
6.081E+01  1.925E-23  3.105E-14
6.026E+01  1.924E-23  3.074E-14
5.970E+01  1.922E-23  3.043E-14
5.916E+01  1.920E-23  3.012E-14
5.861E+01  1.917E-23  2.981E-14
5.808E+01  1.914E-23  2.949E-14
5.754E+01  1.912E-23  2.918E-14
5.702E+01  1.908E-23  2.886E-14
5.649E+01  1.905E-23  2.855E-14
5.598E+01  1.901E-23  2.823E-14
5.546E+01  1.897E-23  2.791E-14
5.495E+01  1.893E-23  2.760E-14
5.445E+01  1.889E-23  2.728E-14
5.395E+01  1.885E-23  2.697E-14
5.346E+01  1.880E-23  2.666E-14
5.297E+01  1.875E-23  2.634E-14
5.248E+01  1.870E-23  2.603E-14
5.200E+01  1.864E-23  2.571E-14
5.152E+01  1.859E-23  2.540E-14
5.105E+01  1.853E-23  2.509E-14
5.058E+01  1.847E-23  2.478E-14
5.012E+01  1.840E-23  2.447E-14
4.966E+01  1.834E-23  2.416E-14
