Dust emission from Draine & Li (2007): ApJ 657, 810-837
================================================================
         8 = grain model
 4.000E-08 4.000E-01 0.000E+00 = a_01 (cm) , sigma_1 , b_C1/0.92
 2.500E-07 4.000E-01 0.000E+00 = a_02 (cm) , sigma_2 , b_C2/0.92
 3.000E+00 3.000E+00 1.000E+00 = Umin , Umax, beta (dN/dU propto U^{-beta})
 3.000E+00 = <U> 
     mmp83 = radfield
 1.914E-24 = power/H (erg s-1)
 band   nu*P_nu(band) j_nu(band)
 (um)   (erg s-1 H-1)(Jy cm2 sr-1 H-1)
1.270E+00  4.113E-27  1.386E-19 COBE-DIRBE
2.220E+00  7.135E-27  4.201E-19 COBE-DIRBE
3.530E+00  7.917E-27  7.413E-19 COBE-DIRBE
4.880E+00  7.545E-27  9.767E-19 COBE-DIRBE
1.229E+01  7.156E-26  2.333E-17 COBE-DIRBE
2.079E+01  9.883E-26  5.450E-17 COBE-DIRBE
5.599E+01  3.889E-25  5.775E-16 COBE-DIRBE
9.770E+01  1.328E-24  3.443E-15 COBE-DIRBE
1.479E+02  1.327E-24  5.204E-15 COBE-DIRBE
2.479E+02  5.031E-25  3.308E-15 COBE-DIRBE
1.200E+01  7.307E-26  2.326E-17 IRAS
2.500E+01  1.020E-25  6.765E-17 IRAS
6.000E+01  4.790E-25  7.623E-16 IRAS
1.000E+02  1.363E-24  3.615E-15 IRAS
3.550E+00  7.930E-27  7.468E-19 SST-IRAC
4.493E+00  7.650E-27  9.118E-19 SST-IRAC
5.731E+00  7.798E-27  1.185E-18 SST-IRAC
7.872E+00  4.400E-26  9.187E-18 SST-IRAC
2.368E+01  9.820E-26  6.168E-17 SST-MIPS
7.142E+01  7.045E-25  1.335E-15 SST-MIPS
1.559E+02  1.211E-24  5.008E-15 SST-MIPS
1.600E+01  6.057E-26  2.571E-17 SST-IRSPU
2.200E+01  1.037E-25  6.052E-17 SST-IRSPU











lambda    nu*dP/dnu     j_nu
 (um)   (erg s-1 H-1)(Jy cm2 sr-1 H-1)
1.000E+04  1.991E-31  5.281E-20
9.908E+03  2.063E-31  5.423E-20
9.817E+03  2.138E-31  5.568E-20
9.727E+03  2.216E-31  5.717E-20
9.638E+03  2.296E-31  5.870E-20
9.550E+03  2.379E-31  6.027E-20
9.462E+03  2.466E-31  6.189E-20
9.376E+03  2.555E-31  6.354E-20
9.290E+03  2.648E-31  6.524E-20
9.204E+03  2.744E-31  6.699E-20
9.120E+03  2.843E-31  6.878E-20
9.036E+03  2.946E-31  7.062E-20
8.954E+03  3.053E-31  7.250E-20
8.872E+03  3.163E-31  7.443E-20
8.790E+03  3.277E-31  7.640E-20
8.710E+03  3.395E-31  7.843E-20
8.630E+03  3.518E-31  8.052E-20
8.551E+03  3.645E-31  8.266E-20
8.472E+03  3.776E-31  8.487E-20
8.395E+03  3.913E-31  8.713E-20
8.318E+03  4.055E-31  8.946E-20
8.241E+03  4.201E-31  9.185E-20
8.166E+03  4.354E-31  9.430E-20
8.091E+03  4.511E-31  9.682E-20
8.017E+03  4.675E-31  9.942E-20
7.943E+03  4.845E-31  1.021E-19
7.870E+03  5.021E-31  1.048E-19
7.798E+03  5.203E-31  1.076E-19
7.727E+03  5.392E-31  1.105E-19
7.656E+03  5.589E-31  1.135E-19
7.586E+03  5.792E-31  1.165E-19
7.516E+03  6.003E-31  1.197E-19
7.447E+03  6.222E-31  1.229E-19
7.379E+03  6.449E-31  1.262E-19
7.311E+03  6.684E-31  1.296E-19
7.244E+03  6.928E-31  1.331E-19
7.178E+03  7.182E-31  1.367E-19
7.112E+03  7.444E-31  1.404E-19
7.047E+03  7.716E-31  1.442E-19
6.982E+03  7.999E-31  1.481E-19
6.918E+03  8.291E-31  1.521E-19
6.855E+03  8.594E-31  1.563E-19
6.792E+03  8.908E-31  1.605E-19
6.730E+03  9.234E-31  1.648E-19
6.668E+03  9.573E-31  1.693E-19
6.607E+03  9.923E-31  1.739E-19
6.546E+03  1.029E-30  1.786E-19
6.486E+03  1.067E-30  1.835E-19
6.427E+03  1.106E-30  1.885E-19
6.368E+03  1.146E-30  1.936E-19
6.310E+03  1.188E-30  1.989E-19
6.252E+03  1.232E-30  2.043E-19
6.194E+03  1.278E-30  2.099E-19
6.138E+03  1.325E-30  2.157E-19
6.081E+03  1.373E-30  2.216E-19
6.026E+03  1.424E-30  2.276E-19
5.970E+03  1.477E-30  2.339E-19
5.916E+03  1.531E-30  2.403E-19
5.861E+03  1.588E-30  2.469E-19
5.808E+03  1.647E-30  2.537E-19
5.754E+03  1.707E-30  2.606E-19
5.702E+03  1.771E-30  2.678E-19
5.649E+03  1.836E-30  2.752E-19
5.598E+03  1.904E-30  2.828E-19
5.546E+03  1.975E-30  2.906E-19
5.495E+03  2.048E-30  2.986E-19
5.445E+03  2.124E-30  3.068E-19
5.395E+03  2.203E-30  3.153E-19
5.346E+03  2.285E-30  3.240E-19
5.297E+03  2.370E-30  3.330E-19
5.248E+03  2.458E-30  3.422E-19
5.200E+03  2.550E-30  3.517E-19
5.152E+03  2.645E-30  3.615E-19
5.105E+03  2.743E-30  3.715E-19
5.058E+03  2.846E-30  3.818E-19
5.012E+03  2.952E-30  3.924E-19
4.966E+03  3.062E-30  4.033E-19
4.920E+03  3.176E-30  4.146E-19
4.875E+03  3.295E-30  4.261E-19
4.831E+03  3.418E-30  4.380E-19
4.786E+03  3.546E-30  4.502E-19
4.742E+03  3.678E-30  4.627E-19
4.699E+03  3.816E-30  4.757E-19
4.656E+03  3.959E-30  4.890E-19
4.613E+03  4.108E-30  5.026E-19
4.571E+03  4.262E-30  5.167E-19
4.529E+03  4.422E-30  5.312E-19
4.487E+03  4.588E-30  5.461E-19
4.446E+03  4.760E-30  5.614E-19
4.406E+03  4.939E-30  5.772E-19
4.365E+03  5.125E-30  5.934E-19
4.325E+03  5.318E-30  6.101E-19
4.285E+03  5.518E-30  6.273E-19
4.246E+03  5.726E-30  6.450E-19
4.207E+03  5.942E-30  6.632E-19
4.169E+03  6.167E-30  6.819E-19
4.130E+03  6.400E-30  7.012E-19
4.093E+03  6.641E-30  7.210E-19
4.055E+03  6.893E-30  7.414E-19
4.018E+03  7.153E-30  7.624E-19
3.981E+03  7.424E-30  7.840E-19
3.945E+03  7.704E-30  8.061E-19
3.908E+03  7.996E-30  8.290E-19
3.873E+03  8.299E-30  8.524E-19
3.837E+03  8.613E-30  8.766E-19
3.802E+03  8.939E-30  9.015E-19
3.767E+03  9.279E-30  9.271E-19
3.733E+03  9.631E-30  9.535E-19
3.698E+03  9.997E-30  9.807E-19
3.664E+03  1.038E-29  1.009E-18
3.631E+03  1.077E-29  1.037E-18
3.597E+03  1.118E-29  1.067E-18
3.565E+03  1.161E-29  1.098E-18
3.532E+03  1.205E-29  1.129E-18
3.499E+03  1.251E-29  1.161E-18
3.467E+03  1.299E-29  1.195E-18
3.436E+03  1.348E-29  1.229E-18
3.404E+03  1.400E-29  1.264E-18
3.373E+03  1.454E-29  1.300E-18
3.342E+03  1.509E-29  1.338E-18
3.311E+03  1.567E-29  1.376E-18
3.281E+03  1.627E-29  1.416E-18
3.251E+03  1.689E-29  1.457E-18
3.221E+03  1.754E-29  1.499E-18
3.192E+03  1.822E-29  1.542E-18
3.162E+03  1.892E-29  1.587E-18
3.133E+03  1.964E-29  1.633E-18
3.105E+03  2.040E-29  1.680E-18
3.076E+03  2.119E-29  1.729E-18
3.048E+03  2.200E-29  1.779E-18
3.020E+03  2.285E-29  1.830E-18
2.992E+03  2.373E-29  1.883E-18
2.965E+03  2.464E-29  1.938E-18
2.938E+03  2.559E-29  1.994E-18
2.911E+03  2.657E-29  2.052E-18
2.884E+03  2.760E-29  2.111E-18
2.858E+03  2.866E-29  2.173E-18
2.831E+03  2.977E-29  2.236E-18
2.805E+03  3.092E-29  2.301E-18
2.780E+03  3.211E-29  2.368E-18
2.754E+03  3.335E-29  2.436E-18
2.729E+03  3.464E-29  2.507E-18
2.704E+03  3.598E-29  2.581E-18
2.679E+03  3.737E-29  2.656E-18
2.655E+03  3.882E-29  2.734E-18
2.630E+03  4.032E-29  2.813E-18
2.606E+03  4.189E-29  2.896E-18
2.582E+03  4.351E-29  2.981E-18
2.559E+03  4.520E-29  3.068E-18
2.535E+03  4.696E-29  3.158E-18
2.512E+03  4.879E-29  3.251E-18
2.489E+03  5.068E-29  3.346E-18
2.466E+03  5.265E-29  3.444E-18
2.443E+03  5.470E-29  3.546E-18
2.421E+03  5.684E-29  3.650E-18
2.399E+03  5.905E-29  3.757E-18
2.377E+03  6.135E-29  3.868E-18
2.355E+03  6.375E-29  3.982E-18
2.333E+03  6.623E-29  4.100E-18
2.312E+03  6.882E-29  4.221E-18
2.291E+03  7.151E-29  4.345E-18
2.270E+03  7.430E-29  4.474E-18
2.249E+03  7.721E-29  4.606E-18
2.228E+03  8.023E-29  4.742E-18
2.208E+03  8.336E-29  4.883E-18
2.188E+03  8.663E-29  5.027E-18
2.168E+03  9.002E-29  5.176E-18
2.148E+03  9.354E-29  5.329E-18
2.128E+03  9.721E-29  5.487E-18
2.109E+03  1.010E-28  5.650E-18
2.089E+03  1.050E-28  5.818E-18
2.070E+03  1.091E-28  5.990E-18
2.051E+03  1.134E-28  6.168E-18
2.032E+03  1.178E-28  6.352E-18
2.014E+03  1.224E-28  6.540E-18
1.995E+03  1.272E-28  6.735E-18
1.977E+03  1.322E-28  6.935E-18
1.959E+03  1.374E-28  7.141E-18
1.941E+03  1.428E-28  7.353E-18
1.923E+03  1.484E-28  7.571E-18
1.905E+03  1.543E-28  7.797E-18
1.888E+03  1.603E-28  8.029E-18
1.871E+03  1.666E-28  8.268E-18
1.854E+03  1.732E-28  8.514E-18
1.837E+03  1.800E-28  8.767E-18
1.820E+03  1.870E-28  9.028E-18
1.803E+03  1.944E-28  9.297E-18
1.786E+03  2.020E-28  9.575E-18
1.770E+03  2.100E-28  9.860E-18
1.754E+03  2.183E-28  1.015E-17
1.738E+03  2.268E-28  1.046E-17
1.722E+03  2.358E-28  1.077E-17
1.706E+03  2.450E-28  1.109E-17
1.690E+03  2.547E-28  1.142E-17
1.675E+03  2.647E-28  1.176E-17
1.660E+03  2.751E-28  1.211E-17
1.644E+03  2.860E-28  1.247E-17
1.629E+03  2.972E-28  1.285E-17
1.614E+03  3.089E-28  1.323E-17
1.600E+03  3.211E-28  1.362E-17
1.585E+03  3.337E-28  1.403E-17
1.570E+03  3.468E-28  1.445E-17
1.556E+03  3.605E-28  1.488E-17
1.542E+03  3.747E-28  1.532E-17
1.528E+03  3.894E-28  1.578E-17
1.514E+03  4.047E-28  1.625E-17
1.500E+03  4.206E-28  1.673E-17
1.486E+03  4.372E-28  1.723E-17
1.472E+03  4.544E-28  1.775E-17
1.459E+03  4.723E-28  1.827E-17
1.445E+03  4.909E-28  1.882E-17
1.432E+03  5.102E-28  1.938E-17
1.419E+03  5.302E-28  1.996E-17
1.406E+03  5.511E-28  2.055E-17
1.393E+03  5.728E-28  2.117E-17
1.380E+03  5.953E-28  2.180E-17
1.368E+03  6.187E-28  2.245E-17
1.355E+03  6.430E-28  2.311E-17
1.343E+03  6.683E-28  2.380E-17
1.330E+03  6.945E-28  2.451E-17
1.318E+03  7.218E-28  2.524E-17
1.306E+03  7.502E-28  2.599E-17
1.294E+03  7.796E-28  2.676E-17
1.282E+03  8.102E-28  2.756E-17
1.271E+03  8.420E-28  2.838E-17
1.259E+03  8.750E-28  2.922E-17
1.247E+03  9.093E-28  3.009E-17
1.236E+03  9.449E-28  3.098E-17
1.225E+03  9.819E-28  3.190E-17
1.213E+03  1.020E-27  3.284E-17
1.202E+03  1.060E-27  3.381E-17
1.191E+03  1.102E-27  3.481E-17
1.180E+03  1.145E-27  3.584E-17
1.169E+03  1.189E-27  3.690E-17
1.159E+03  1.236E-27  3.799E-17
1.148E+03  1.284E-27  3.911E-17
1.138E+03  1.334E-27  4.026E-17
1.127E+03  1.386E-27  4.145E-17
1.117E+03  1.440E-27  4.267E-17
1.107E+03  1.496E-27  4.392E-17
1.096E+03  1.555E-27  4.522E-17
1.086E+03  1.615E-27  4.654E-17
1.076E+03  1.678E-27  4.791E-17
1.067E+03  1.743E-27  4.931E-17
1.057E+03  1.811E-27  5.076E-17
1.047E+03  1.881E-27  5.224E-17
1.038E+03  1.954E-27  5.377E-17
1.028E+03  2.029E-27  5.534E-17
1.019E+03  2.108E-27  5.695E-17
1.009E+03  2.189E-27  5.861E-17
1.000E+03  2.274E-27  6.032E-17
9.908E+02  2.362E-27  6.207E-17
9.817E+02  2.453E-27  6.388E-17
9.727E+02  2.548E-27  6.574E-17
9.638E+02  2.646E-27  6.765E-17
9.550E+02  2.748E-27  6.961E-17
9.462E+02  2.854E-27  7.163E-17
9.376E+02  2.964E-27  7.371E-17
9.290E+02  3.078E-27  7.584E-17
9.204E+02  3.196E-27  7.803E-17
9.120E+02  3.319E-27  8.028E-17
9.036E+02  3.446E-27  8.259E-17
8.954E+02  3.578E-27  8.497E-17
8.872E+02  3.714E-27  8.741E-17
8.790E+02  3.856E-27  8.991E-17
8.710E+02  4.003E-27  9.249E-17
8.630E+02  4.156E-27  9.513E-17
8.551E+02  4.314E-27  9.784E-17
8.472E+02  4.478E-27  1.006E-16
8.395E+02  4.647E-27  1.035E-16
8.318E+02  4.823E-27  1.064E-16
8.241E+02  5.006E-27  1.094E-16
8.166E+02  5.195E-27  1.125E-16
8.091E+02  5.391E-27  1.157E-16
8.017E+02  5.594E-27  1.190E-16
7.943E+02  5.805E-27  1.223E-16
7.870E+02  6.023E-27  1.257E-16
7.798E+02  6.249E-27  1.293E-16
7.727E+02  6.483E-27  1.329E-16
7.656E+02  6.726E-27  1.366E-16
7.586E+02  6.977E-27  1.404E-16
7.516E+02  7.238E-27  1.443E-16
7.447E+02  7.509E-27  1.483E-16
7.379E+02  7.789E-27  1.525E-16
7.311E+02  8.080E-27  1.567E-16
7.244E+02  8.382E-27  1.611E-16
7.178E+02  8.695E-27  1.656E-16
7.112E+02  9.019E-27  1.702E-16
7.047E+02  9.356E-27  1.749E-16
6.982E+02  9.704E-27  1.797E-16
6.918E+02  1.007E-26  1.847E-16
6.855E+02  1.044E-26  1.898E-16
6.792E+02  1.083E-26  1.951E-16
6.730E+02  1.123E-26  2.004E-16
6.668E+02  1.164E-26  2.059E-16
6.607E+02  1.207E-26  2.116E-16
6.546E+02  1.252E-26  2.174E-16
6.486E+02  1.299E-26  2.234E-16
6.427E+02  1.347E-26  2.296E-16
6.368E+02  1.397E-26  2.359E-16
6.310E+02  1.449E-26  2.424E-16
6.252E+02  1.502E-26  2.491E-16
6.194E+02  1.558E-26  2.560E-16
6.138E+02  1.616E-26  2.630E-16
6.081E+02  1.675E-26  2.702E-16
6.026E+02  1.737E-26  2.777E-16
5.970E+02  1.801E-26  2.853E-16
5.916E+02  1.868E-26  2.931E-16
5.861E+02  1.937E-26  3.012E-16
5.808E+02  2.008E-26  3.094E-16
5.754E+02  2.083E-26  3.179E-16
5.702E+02  2.159E-26  3.266E-16
5.649E+02  2.239E-26  3.355E-16
5.598E+02  2.321E-26  3.446E-16
5.546E+02  2.407E-26  3.541E-16
5.495E+02  2.495E-26  3.637E-16
5.445E+02  2.587E-26  3.736E-16
5.395E+02  2.682E-26  3.838E-16
5.346E+02  2.780E-26  3.942E-16
5.297E+02  2.882E-26  4.049E-16
5.248E+02  2.988E-26  4.159E-16
5.200E+02  3.097E-26  4.272E-16
5.152E+02  3.210E-26  4.388E-16
5.105E+02  3.328E-26  4.506E-16
5.058E+02  3.449E-26  4.628E-16
5.012E+02  3.575E-26  4.753E-16
4.966E+02  3.705E-26  4.881E-16
4.920E+02  3.840E-26  5.012E-16
4.875E+02  3.980E-26  5.147E-16
4.831E+02  4.125E-26  5.285E-16
4.786E+02  4.274E-26  5.427E-16
4.742E+02  4.429E-26  5.572E-16
4.699E+02  4.589E-26  5.720E-16
4.656E+02  4.755E-26  5.873E-16
4.613E+02  4.927E-26  6.029E-16
4.571E+02  5.105E-26  6.190E-16
4.529E+02  5.289E-26  6.354E-16
4.487E+02  5.479E-26  6.522E-16
4.446E+02  5.676E-26  6.695E-16
4.406E+02  5.880E-26  6.871E-16
4.365E+02  6.091E-26  7.052E-16
4.325E+02  6.309E-26  7.238E-16
4.285E+02  6.534E-26  7.428E-16
4.246E+02  6.767E-26  7.622E-16
4.207E+02  7.008E-26  7.821E-16
4.169E+02  7.258E-26  8.026E-16
4.130E+02  7.515E-26  8.234E-16
4.093E+02  7.782E-26  8.448E-16
4.055E+02  8.058E-26  8.667E-16
4.018E+02  8.343E-26  8.891E-16
3.981E+02  8.637E-26  9.121E-16
3.945E+02  8.942E-26  9.356E-16
3.908E+02  9.257E-26  9.597E-16
3.873E+02  9.583E-26  9.844E-16
3.837E+02  9.920E-26  1.010E-15
3.802E+02  1.027E-25  1.035E-15
3.767E+02  1.063E-25  1.062E-15
3.733E+02  1.100E-25  1.089E-15
3.698E+02  1.138E-25  1.116E-15
3.664E+02  1.178E-25  1.145E-15
3.631E+02  1.218E-25  1.173E-15
3.597E+02  1.260E-25  1.203E-15
3.565E+02  1.304E-25  1.233E-15
3.532E+02  1.349E-25  1.264E-15
3.499E+02  1.395E-25  1.295E-15
3.467E+02  1.443E-25  1.327E-15
3.436E+02  1.492E-25  1.360E-15
3.404E+02  1.543E-25  1.394E-15
3.373E+02  1.596E-25  1.428E-15
3.342E+02  1.650E-25  1.463E-15
3.311E+02  1.706E-25  1.498E-15
3.281E+02  1.763E-25  1.535E-15
3.251E+02  1.823E-25  1.572E-15
3.221E+02  1.884E-25  1.610E-15
3.192E+02  1.947E-25  1.648E-15
3.162E+02  2.012E-25  1.688E-15
3.133E+02  2.078E-25  1.727E-15
3.105E+02  2.147E-25  1.768E-15
3.076E+02  2.218E-25  1.810E-15
3.048E+02  2.291E-25  1.852E-15
3.020E+02  2.366E-25  1.896E-15
2.992E+02  2.444E-25  1.939E-15
2.965E+02  2.523E-25  1.984E-15
2.938E+02  2.605E-25  2.030E-15
2.911E+02  2.689E-25  2.076E-15
2.884E+02  2.775E-25  2.123E-15
2.858E+02  2.865E-25  2.171E-15
2.831E+02  2.956E-25  2.220E-15
2.805E+02  3.050E-25  2.270E-15
2.780E+02  3.146E-25  2.320E-15
2.754E+02  3.245E-25  2.371E-15
2.729E+02  3.347E-25  2.423E-15
2.704E+02  3.453E-25  2.476E-15
2.679E+02  3.561E-25  2.530E-15
2.655E+02  3.672E-25  2.585E-15
2.630E+02  3.786E-25  2.641E-15
2.606E+02  3.903E-25  2.698E-15
2.582E+02  4.023E-25  2.755E-15
2.559E+02  4.145E-25  2.813E-15
2.535E+02  4.269E-25  2.871E-15
2.512E+02  4.396E-25  2.929E-15
2.489E+02  4.522E-25  2.986E-15
2.466E+02  4.648E-25  3.041E-15
2.443E+02  4.776E-25  3.095E-15
2.421E+02  4.904E-25  3.150E-15
2.399E+02  5.034E-25  3.203E-15
2.377E+02  5.163E-25  3.255E-15
2.355E+02  5.294E-25  3.307E-15
2.333E+02  5.427E-25  3.359E-15
2.312E+02  5.563E-25  3.412E-15
2.291E+02  5.700E-25  3.464E-15
2.270E+02  5.840E-25  3.516E-15
2.249E+02  5.982E-25  3.568E-15
2.228E+02  6.125E-25  3.621E-15
2.208E+02  6.271E-25  3.673E-15
2.188E+02  6.419E-25  3.725E-15
2.168E+02  6.569E-25  3.777E-15
2.148E+02  6.720E-25  3.829E-15
2.128E+02  6.873E-25  3.880E-15
2.109E+02  7.028E-25  3.931E-15
2.089E+02  7.185E-25  3.982E-15
2.070E+02  7.343E-25  4.032E-15
2.051E+02  7.502E-25  4.082E-15
2.032E+02  7.663E-25  4.131E-15
2.014E+02  7.826E-25  4.180E-15
1.995E+02  7.990E-25  4.229E-15
1.977E+02  8.155E-25  4.276E-15
1.959E+02  8.321E-25  4.323E-15
1.941E+02  8.488E-25  4.370E-15
1.923E+02  8.656E-25  4.415E-15
1.905E+02  8.825E-25  4.460E-15
1.888E+02  8.995E-25  4.505E-15
1.871E+02  9.166E-25  4.548E-15
1.854E+02  9.337E-25  4.591E-15
1.837E+02  9.509E-25  4.632E-15
1.820E+02  9.681E-25  4.673E-15
1.803E+02  9.854E-25  4.713E-15
1.786E+02  1.003E-24  4.752E-15
1.770E+02  1.020E-24  4.789E-15
1.754E+02  1.037E-24  4.826E-15
1.738E+02  1.055E-24  4.862E-15
1.722E+02  1.072E-24  4.896E-15
1.706E+02  1.089E-24  4.930E-15
1.690E+02  1.107E-24  4.962E-15
1.675E+02  1.124E-24  4.994E-15
1.660E+02  1.141E-24  5.024E-15
1.644E+02  1.159E-24  5.054E-15
1.629E+02  1.176E-24  5.082E-15
1.614E+02  1.193E-24  5.110E-15
1.600E+02  1.211E-24  5.137E-15
1.585E+02  1.228E-24  5.163E-15
1.570E+02  1.246E-24  5.189E-15
1.556E+02  1.263E-24  5.214E-15
1.542E+02  1.281E-24  5.239E-15
1.528E+02  1.299E-24  5.264E-15
1.514E+02  1.317E-24  5.289E-15
1.500E+02  1.336E-24  5.314E-15
1.486E+02  1.355E-24  5.339E-15
1.472E+02  1.374E-24  5.365E-15
1.459E+02  1.393E-24  5.390E-15
1.445E+02  1.412E-24  5.414E-15
1.432E+02  1.430E-24  5.434E-15
1.419E+02  1.448E-24  5.449E-15
1.406E+02  1.463E-24  5.456E-15
1.393E+02  1.476E-24  5.454E-15
1.380E+02  1.486E-24  5.442E-15
1.368E+02  1.494E-24  5.420E-15
1.355E+02  1.499E-24  5.390E-15
1.343E+02  1.503E-24  5.354E-15
1.330E+02  1.506E-24  5.315E-15
1.318E+02  1.508E-24  5.273E-15
1.306E+02  1.510E-24  5.231E-15
1.294E+02  1.512E-24  5.189E-15
1.282E+02  1.513E-24  5.147E-15
1.271E+02  1.515E-24  5.105E-15
1.259E+02  1.516E-24  5.063E-15
1.247E+02  1.518E-24  5.021E-15
1.236E+02  1.519E-24  4.979E-15
1.225E+02  1.520E-24  4.936E-15
1.213E+02  1.520E-24  4.893E-15
1.202E+02  1.521E-24  4.849E-15
1.191E+02  1.520E-24  4.804E-15
1.180E+02  1.520E-24  4.759E-15
1.169E+02  1.519E-24  4.711E-15
1.159E+02  1.517E-24  4.663E-15
1.148E+02  1.515E-24  4.614E-15
1.138E+02  1.512E-24  4.563E-15
1.127E+02  1.509E-24  4.512E-15
1.117E+02  1.505E-24  4.460E-15
1.107E+02  1.501E-24  4.407E-15
1.096E+02  1.497E-24  4.353E-15
1.086E+02  1.491E-24  4.298E-15
1.076E+02  1.486E-24  4.242E-15
1.067E+02  1.479E-24  4.185E-15
1.057E+02  1.472E-24  4.127E-15
1.047E+02  1.465E-24  4.069E-15
1.038E+02  1.457E-24  4.009E-15
1.028E+02  1.448E-24  3.949E-15
1.019E+02  1.439E-24  3.887E-15
1.009E+02  1.429E-24  3.825E-15
1.000E+02  1.418E-24  3.761E-15
9.908E+01  1.407E-24  3.698E-15
9.817E+01  1.395E-24  3.633E-15
9.727E+01  1.383E-24  3.568E-15
9.638E+01  1.370E-24  3.502E-15
9.550E+01  1.356E-24  3.436E-15
9.462E+01  1.343E-24  3.370E-15
9.376E+01  1.328E-24  3.303E-15
9.290E+01  1.313E-24  3.236E-15
9.204E+01  1.298E-24  3.169E-15
9.120E+01  1.282E-24  3.102E-15
9.036E+01  1.266E-24  3.034E-15
8.954E+01  1.249E-24  2.967E-15
8.872E+01  1.232E-24  2.900E-15
8.790E+01  1.215E-24  2.833E-15
8.710E+01  1.197E-24  2.766E-15
8.630E+01  1.179E-24  2.700E-15
8.551E+01  1.161E-24  2.634E-15
8.472E+01  1.143E-24  2.568E-15
8.395E+01  1.124E-24  2.502E-15
8.318E+01  1.105E-24  2.437E-15
8.241E+01  1.085E-24  2.373E-15
8.166E+01  1.066E-24  2.309E-15
8.091E+01  1.046E-24  2.246E-15
8.017E+01  1.027E-24  2.183E-15
7.943E+01  1.007E-24  2.121E-15
7.870E+01  9.867E-25  2.060E-15
7.798E+01  9.666E-25  1.999E-15
7.727E+01  9.464E-25  1.940E-15
7.656E+01  9.262E-25  1.881E-15
7.586E+01  9.061E-25  1.823E-15
7.516E+01  8.859E-25  1.766E-15
7.447E+01  8.657E-25  1.710E-15
7.379E+01  8.455E-25  1.655E-15
7.311E+01  8.254E-25  1.601E-15
7.244E+01  8.053E-25  1.548E-15
7.178E+01  7.854E-25  1.495E-15
7.112E+01  7.656E-25  1.444E-15
7.047E+01  7.461E-25  1.395E-15
6.982E+01  7.268E-25  1.346E-15
6.918E+01  7.077E-25  1.299E-15
6.855E+01  6.887E-25  1.252E-15
6.792E+01  6.699E-25  1.207E-15
6.730E+01  6.513E-25  1.163E-15
6.668E+01  6.331E-25  1.120E-15
6.607E+01  6.152E-25  1.078E-15
6.546E+01  5.975E-25  1.038E-15
6.486E+01  5.802E-25  9.982E-16
6.427E+01  5.631E-25  9.599E-16
6.368E+01  5.463E-25  9.229E-16
6.310E+01  5.300E-25  8.870E-16
6.252E+01  5.140E-25  8.524E-16
6.194E+01  4.983E-25  8.188E-16
6.138E+01  4.830E-25  7.864E-16
6.081E+01  4.681E-25  7.551E-16
6.026E+01  4.535E-25  7.249E-16
5.970E+01  4.393E-25  6.958E-16
5.916E+01  4.255E-25  6.677E-16
5.861E+01  4.120E-25  6.406E-16
5.808E+01  3.989E-25  6.146E-16
5.754E+01  3.862E-25  5.895E-16
5.702E+01  3.739E-25  5.655E-16
5.649E+01  3.620E-25  5.424E-16
5.598E+01  3.504E-25  5.203E-16
5.546E+01  3.393E-25  4.992E-16
5.495E+01  3.286E-25  4.790E-16
5.445E+01  3.182E-25  4.596E-16
5.395E+01  3.082E-25  4.411E-16
5.346E+01  2.986E-25  4.234E-16
5.297E+01  2.893E-25  4.065E-16
5.248E+01  2.804E-25  3.904E-16
5.200E+01  2.719E-25  3.750E-16
5.152E+01  2.636E-25  3.603E-16
5.105E+01  2.557E-25  3.463E-16
5.058E+01  2.481E-25  3.329E-16
5.012E+01  2.409E-25  3.202E-16
4.966E+01  2.339E-25  3.081E-16
