Dust emission from Draine & Li (2007): ApJ 657, 810-837
================================================================
         1 = grain model
 4.000E-08 4.000E-01 0.000E+00 = a_01 (cm) , sigma_1 , b_C1/0.92
 2.500E-07 4.000E-01 0.000E+00 = a_02 (cm) , sigma_2 , b_C2/0.92
 3.000E+00 1.000E+03 2.000E+00 = Umin , Umax, beta (dN/dU propto U^{-beta})
 1.748E+01 = <U> 
     mmp83 = radfield
 7.810E-23 = power/H (erg s-1)
 band   nu*P_nu(band) j_nu(band)
 (um)   (erg s-1 H-1)(Jy cm2 sr-1 H-1)
1.270E+00  2.930E-26  9.871E-19 COBE-DIRBE
2.220E+00  3.471E-26  2.044E-18 COBE-DIRBE
3.530E+00  2.129E-25  1.994E-17 COBE-DIRBE
4.880E+00  9.681E-26  1.253E-17 COBE-DIRBE
1.229E+01  2.482E-24  8.090E-16 COBE-DIRBE
2.079E+01  5.495E-24  3.031E-15 COBE-DIRBE
5.599E+01  5.259E-23  7.811E-14 COBE-DIRBE
9.770E+01  3.629E-23  9.404E-14 COBE-DIRBE
1.479E+02  1.773E-23  6.955E-14 COBE-DIRBE
2.479E+02  4.048E-24  2.661E-14 COBE-DIRBE
1.200E+01  2.141E-24  6.814E-16 IRAS
2.500E+01  8.025E-24  5.322E-15 IRAS
6.000E+01  5.153E-23  8.201E-14 IRAS
1.000E+02  3.506E-23  9.299E-14 IRAS
3.550E+00  2.477E-25  2.332E-17 SST-IRAC
4.493E+00  6.751E-26  8.046E-18 SST-IRAC
5.731E+00  6.191E-25  9.411E-17 SST-IRAC
7.872E+00  1.966E-24  4.104E-16 SST-IRAC
2.368E+01  6.731E-24  4.228E-15 SST-MIPS
7.142E+01  4.519E-23  8.562E-14 SST-MIPS
1.559E+02  1.445E-23  5.977E-14 SST-MIPS
1.600E+01  3.498E-24  1.485E-15 SST-IRSPU
2.200E+01  6.434E-24  3.754E-15 SST-IRSPU











lambda    nu*dP/dnu     j_nu
 (um)   (erg s-1 H-1)(Jy cm2 sr-1 H-1)
1.000E+04  7.906E-31  2.097E-19
9.908E+03  8.196E-31  2.154E-19
9.817E+03  8.497E-31  2.213E-19
9.727E+03  8.809E-31  2.273E-19
9.638E+03  9.133E-31  2.335E-19
9.550E+03  9.469E-31  2.399E-19
9.462E+03  9.817E-31  2.464E-19
9.376E+03  1.018E-30  2.531E-19
9.290E+03  1.055E-30  2.600E-19
9.204E+03  1.094E-30  2.671E-19
9.120E+03  1.134E-30  2.744E-19
9.036E+03  1.176E-30  2.818E-19
8.954E+03  1.219E-30  2.895E-19
8.872E+03  1.264E-30  2.973E-19
8.790E+03  1.310E-30  3.054E-19
8.710E+03  1.358E-30  3.137E-19
8.630E+03  1.407E-30  3.222E-19
8.551E+03  1.459E-30  3.309E-19
8.472E+03  1.513E-30  3.399E-19
8.395E+03  1.568E-30  3.492E-19
8.318E+03  1.626E-30  3.587E-19
8.241E+03  1.685E-30  3.684E-19
8.166E+03  1.747E-30  3.785E-19
8.091E+03  1.812E-30  3.888E-19
8.017E+03  1.878E-30  3.994E-19
7.943E+03  1.948E-30  4.104E-19
7.870E+03  2.019E-30  4.216E-19
7.798E+03  2.094E-30  4.331E-19
7.727E+03  2.171E-30  4.450E-19
7.656E+03  2.251E-30  4.572E-19
7.586E+03  2.335E-30  4.698E-19
7.516E+03  2.421E-30  4.827E-19
7.447E+03  2.510E-30  4.959E-19
7.379E+03  2.603E-30  5.096E-19
7.311E+03  2.700E-30  5.236E-19
7.244E+03  2.800E-30  5.380E-19
7.178E+03  2.904E-30  5.529E-19
7.112E+03  3.011E-30  5.681E-19
7.047E+03  3.123E-30  5.838E-19
6.982E+03  3.239E-30  5.999E-19
6.918E+03  3.359E-30  6.165E-19
6.855E+03  3.484E-30  6.335E-19
6.792E+03  3.614E-30  6.510E-19
6.730E+03  3.748E-30  6.690E-19
6.668E+03  3.887E-30  6.876E-19
6.607E+03  4.032E-30  7.066E-19
6.546E+03  4.182E-30  7.262E-19
6.486E+03  4.338E-30  7.464E-19
6.427E+03  4.500E-30  7.671E-19
6.368E+03  4.668E-30  7.885E-19
6.310E+03  4.842E-30  8.104E-19
6.252E+03  5.023E-30  8.330E-19
6.194E+03  5.211E-30  8.562E-19
6.138E+03  5.406E-30  8.801E-19
6.081E+03  5.608E-30  9.047E-19
6.026E+03  5.818E-30  9.300E-19
5.970E+03  6.036E-30  9.560E-19
5.916E+03  6.263E-30  9.827E-19
5.861E+03  6.498E-30  1.010E-18
5.808E+03  6.742E-30  1.039E-18
5.754E+03  6.995E-30  1.068E-18
5.702E+03  7.258E-30  1.098E-18
5.649E+03  7.531E-30  1.129E-18
5.598E+03  7.815E-30  1.160E-18
5.546E+03  8.109E-30  1.193E-18
5.495E+03  8.415E-30  1.227E-18
5.445E+03  8.732E-30  1.261E-18
5.395E+03  9.061E-30  1.297E-18
5.346E+03  9.404E-30  1.333E-18
5.297E+03  9.759E-30  1.371E-18
5.248E+03  1.013E-29  1.410E-18
5.200E+03  1.051E-29  1.450E-18
5.152E+03  1.091E-29  1.491E-18
5.105E+03  1.132E-29  1.533E-18
5.058E+03  1.175E-29  1.577E-18
5.012E+03  1.220E-29  1.621E-18
4.966E+03  1.266E-29  1.667E-18
4.920E+03  1.314E-29  1.715E-18
4.875E+03  1.364E-29  1.763E-18
4.831E+03  1.415E-29  1.814E-18
4.786E+03  1.469E-29  1.865E-18
4.742E+03  1.525E-29  1.918E-18
4.699E+03  1.583E-29  1.973E-18
4.656E+03  1.643E-29  2.029E-18
4.613E+03  1.706E-29  2.087E-18
4.571E+03  1.771E-29  2.147E-18
4.529E+03  1.838E-29  2.209E-18
4.487E+03  1.909E-29  2.272E-18
4.446E+03  1.981E-29  2.337E-18
4.406E+03  2.057E-29  2.404E-18
4.365E+03  2.136E-29  2.473E-18
4.325E+03  2.218E-29  2.544E-18
4.285E+03  2.303E-29  2.617E-18
4.246E+03  2.391E-29  2.693E-18
4.207E+03  2.482E-29  2.770E-18
4.169E+03  2.578E-29  2.850E-18
4.130E+03  2.677E-29  2.933E-18
4.093E+03  2.779E-29  3.017E-18
4.055E+03  2.886E-29  3.104E-18
4.018E+03  2.997E-29  3.194E-18
3.981E+03  3.112E-29  3.287E-18
3.945E+03  3.232E-29  3.382E-18
3.908E+03  3.356E-29  3.480E-18
3.873E+03  3.485E-29  3.580E-18
3.837E+03  3.620E-29  3.684E-18
3.802E+03  3.759E-29  3.791E-18
3.767E+03  3.904E-29  3.901E-18
3.733E+03  4.055E-29  4.015E-18
3.698E+03  4.212E-29  4.132E-18
3.664E+03  4.374E-29  4.252E-18
3.631E+03  4.544E-29  4.376E-18
3.597E+03  4.720E-29  4.504E-18
3.565E+03  4.903E-29  4.635E-18
3.532E+03  5.093E-29  4.771E-18
3.499E+03  5.290E-29  4.911E-18
3.467E+03  5.496E-29  5.055E-18
3.436E+03  5.709E-29  5.203E-18
3.404E+03  5.931E-29  5.356E-18
3.373E+03  6.162E-29  5.513E-18
3.342E+03  6.402E-29  5.675E-18
3.311E+03  6.651E-29  5.842E-18
3.281E+03  6.911E-29  6.014E-18
3.251E+03  7.180E-29  6.192E-18
3.221E+03  7.460E-29  6.374E-18
3.192E+03  7.752E-29  6.563E-18
3.162E+03  8.055E-29  6.757E-18
3.133E+03  8.370E-29  6.957E-18
3.105E+03  8.698E-29  7.163E-18
3.076E+03  9.038E-29  7.375E-18
3.048E+03  9.392E-29  7.594E-18
3.020E+03  9.761E-29  7.819E-18
2.992E+03  1.014E-28  8.051E-18
2.965E+03  1.054E-28  8.289E-18
2.938E+03  1.095E-28  8.535E-18
2.911E+03  1.138E-28  8.788E-18
2.884E+03  1.183E-28  9.049E-18
2.858E+03  1.229E-28  9.318E-18
2.831E+03  1.278E-28  9.596E-18
2.805E+03  1.328E-28  9.881E-18
2.780E+03  1.380E-28  1.018E-17
2.754E+03  1.434E-28  1.048E-17
2.729E+03  1.491E-28  1.079E-17
2.704E+03  1.550E-28  1.111E-17
2.679E+03  1.611E-28  1.145E-17
2.655E+03  1.674E-28  1.179E-17
2.630E+03  1.741E-28  1.214E-17
2.606E+03  1.809E-28  1.251E-17
2.582E+03  1.881E-28  1.288E-17
2.559E+03  1.955E-28  1.327E-17
2.535E+03  2.033E-28  1.367E-17
2.512E+03  2.113E-28  1.408E-17
2.489E+03  2.197E-28  1.450E-17
2.466E+03  2.284E-28  1.494E-17
2.443E+03  2.375E-28  1.539E-17
2.421E+03  2.469E-28  1.586E-17
2.399E+03  2.567E-28  1.634E-17
2.377E+03  2.669E-28  1.683E-17
2.355E+03  2.776E-28  1.734E-17
2.333E+03  2.886E-28  1.786E-17
2.312E+03  3.001E-28  1.840E-17
2.291E+03  3.121E-28  1.896E-17
2.270E+03  3.245E-28  1.954E-17
2.249E+03  3.374E-28  2.013E-17
2.228E+03  3.509E-28  2.074E-17
2.208E+03  3.649E-28  2.137E-17
2.188E+03  3.795E-28  2.202E-17
2.168E+03  3.947E-28  2.269E-17
2.148E+03  4.105E-28  2.338E-17
2.128E+03  4.269E-28  2.410E-17
2.109E+03  4.440E-28  2.483E-17
2.089E+03  4.617E-28  2.559E-17
2.070E+03  4.802E-28  2.637E-17
2.051E+03  4.995E-28  2.718E-17
2.032E+03  5.195E-28  2.801E-17
2.014E+03  5.403E-28  2.886E-17
1.995E+03  5.620E-28  2.975E-17
1.977E+03  5.846E-28  3.066E-17
1.959E+03  6.080E-28  3.159E-17
1.941E+03  6.324E-28  3.256E-17
1.923E+03  6.579E-28  3.356E-17
1.905E+03  6.843E-28  3.459E-17
1.888E+03  7.118E-28  3.565E-17
1.871E+03  7.404E-28  3.674E-17
1.854E+03  7.702E-28  3.787E-17
1.837E+03  8.012E-28  3.903E-17
1.820E+03  8.335E-28  4.023E-17
1.803E+03  8.671E-28  4.147E-17
1.786E+03  9.020E-28  4.275E-17
1.770E+03  9.384E-28  4.406E-17
1.754E+03  9.762E-28  4.542E-17
1.738E+03  1.016E-27  4.682E-17
1.722E+03  1.057E-27  4.826E-17
1.706E+03  1.099E-27  4.975E-17
1.690E+03  1.144E-27  5.128E-17
1.675E+03  1.190E-27  5.286E-17
1.660E+03  1.238E-27  5.449E-17
1.644E+03  1.288E-27  5.617E-17
1.629E+03  1.340E-27  5.791E-17
1.614E+03  1.394E-27  5.970E-17
1.600E+03  1.450E-27  6.154E-17
1.585E+03  1.509E-27  6.344E-17
1.570E+03  1.570E-27  6.540E-17
1.556E+03  1.634E-27  6.743E-17
1.542E+03  1.700E-27  6.951E-17
1.528E+03  1.768E-27  7.166E-17
1.514E+03  1.840E-27  7.387E-17
1.500E+03  1.915E-27  7.616E-17
1.486E+03  1.992E-27  7.852E-17
1.472E+03  2.073E-27  8.095E-17
1.459E+03  2.157E-27  8.346E-17
1.445E+03  2.244E-27  8.604E-17
1.432E+03  2.335E-27  8.871E-17
1.419E+03  2.430E-27  9.146E-17
1.406E+03  2.528E-27  9.430E-17
1.393E+03  2.631E-27  9.722E-17
1.380E+03  2.738E-27  1.002E-16
1.368E+03  2.849E-27  1.033E-16
1.355E+03  2.964E-27  1.066E-16
1.343E+03  3.084E-27  1.099E-16
1.330E+03  3.209E-27  1.133E-16
1.318E+03  3.340E-27  1.168E-16
1.306E+03  3.475E-27  1.204E-16
1.294E+03  3.616E-27  1.241E-16
1.282E+03  3.763E-27  1.280E-16
1.271E+03  3.915E-27  1.320E-16
1.259E+03  4.074E-27  1.360E-16
1.247E+03  4.239E-27  1.403E-16
1.236E+03  4.411E-27  1.446E-16
1.225E+03  4.590E-27  1.491E-16
1.213E+03  4.776E-27  1.537E-16
1.202E+03  4.970E-27  1.585E-16
1.191E+03  5.171E-27  1.634E-16
1.180E+03  5.380E-27  1.685E-16
1.169E+03  5.598E-27  1.737E-16
1.159E+03  5.825E-27  1.791E-16
1.148E+03  6.061E-27  1.846E-16
1.138E+03  6.307E-27  1.903E-16
1.127E+03  6.562E-27  1.962E-16
1.117E+03  6.828E-27  2.023E-16
1.107E+03  7.104E-27  2.085E-16
1.096E+03  7.391E-27  2.150E-16
1.086E+03  7.690E-27  2.216E-16
1.076E+03  8.001E-27  2.285E-16
1.067E+03  8.325E-27  2.355E-16
1.057E+03  8.661E-27  2.428E-16
1.047E+03  9.011E-27  2.503E-16
1.038E+03  9.375E-27  2.580E-16
1.028E+03  9.753E-27  2.660E-16
1.019E+03  1.015E-26  2.741E-16
1.009E+03  1.056E-26  2.826E-16
1.000E+03  1.098E-26  2.913E-16
9.908E+02  1.142E-26  3.003E-16
9.817E+02  1.189E-26  3.095E-16
9.727E+02  1.236E-26  3.190E-16
9.638E+02  1.286E-26  3.289E-16
9.550E+02  1.338E-26  3.390E-16
9.462E+02  1.392E-26  3.494E-16
9.376E+02  1.448E-26  3.601E-16
9.290E+02  1.506E-26  3.712E-16
9.204E+02  1.567E-26  3.826E-16
9.120E+02  1.630E-26  3.943E-16
9.036E+02  1.695E-26  4.064E-16
8.954E+02  1.764E-26  4.188E-16
8.872E+02  1.834E-26  4.316E-16
8.790E+02  1.908E-26  4.448E-16
8.710E+02  1.984E-26  4.584E-16
8.630E+02  2.064E-26  4.724E-16
8.551E+02  2.146E-26  4.868E-16
8.472E+02  2.232E-26  5.016E-16
8.395E+02  2.321E-26  5.168E-16
8.318E+02  2.414E-26  5.325E-16
8.241E+02  2.510E-26  5.487E-16
8.166E+02  2.610E-26  5.653E-16
8.091E+02  2.714E-26  5.824E-16
8.017E+02  2.822E-26  6.000E-16
7.943E+02  2.934E-26  6.182E-16
7.870E+02  3.050E-26  6.368E-16
7.798E+02  3.172E-26  6.560E-16
7.727E+02  3.297E-26  6.758E-16
7.656E+02  3.428E-26  6.962E-16
7.586E+02  3.564E-26  7.171E-16
7.516E+02  3.705E-26  7.387E-16
7.447E+02  3.852E-26  7.609E-16
7.379E+02  4.004E-26  7.838E-16
7.311E+02  4.163E-26  8.074E-16
7.244E+02  4.328E-26  8.317E-16
7.178E+02  4.499E-26  8.567E-16
7.112E+02  4.677E-26  8.824E-16
7.047E+02  4.862E-26  9.089E-16
6.982E+02  5.055E-26  9.362E-16
6.918E+02  5.255E-26  9.643E-16
6.855E+02  5.463E-26  9.933E-16
6.792E+02  5.678E-26  1.023E-15
6.730E+02  5.902E-26  1.054E-15
6.668E+02  6.135E-26  1.085E-15
6.607E+02  6.376E-26  1.117E-15
6.546E+02  6.628E-26  1.151E-15
6.486E+02  6.890E-26  1.185E-15
6.427E+02  7.162E-26  1.221E-15
6.368E+02  7.445E-26  1.258E-15
6.310E+02  7.739E-26  1.295E-15
6.252E+02  8.045E-26  1.334E-15
6.194E+02  8.362E-26  1.374E-15
6.138E+02  8.693E-26  1.415E-15
6.081E+02  9.036E-26  1.458E-15
6.026E+02  9.392E-26  1.501E-15
5.970E+02  9.763E-26  1.546E-15
5.916E+02  1.015E-25  1.592E-15
5.861E+02  1.055E-25  1.640E-15
5.808E+02  1.096E-25  1.689E-15
5.754E+02  1.140E-25  1.739E-15
5.702E+02  1.184E-25  1.791E-15
5.649E+02  1.231E-25  1.845E-15
5.598E+02  1.280E-25  1.900E-15
5.546E+02  1.330E-25  1.957E-15
5.495E+02  1.382E-25  2.015E-15
5.445E+02  1.437E-25  2.075E-15
5.395E+02  1.493E-25  2.137E-15
5.346E+02  1.552E-25  2.200E-15
5.297E+02  1.613E-25  2.266E-15
5.248E+02  1.676E-25  2.333E-15
5.200E+02  1.742E-25  2.403E-15
5.152E+02  1.810E-25  2.474E-15
5.105E+02  1.881E-25  2.548E-15
5.058E+02  1.955E-25  2.623E-15
5.012E+02  2.032E-25  2.701E-15
4.966E+02  2.111E-25  2.781E-15
4.920E+02  2.194E-25  2.864E-15
4.875E+02  2.280E-25  2.948E-15
4.831E+02  2.369E-25  3.036E-15
4.786E+02  2.462E-25  3.125E-15
4.742E+02  2.558E-25  3.218E-15
4.699E+02  2.658E-25  3.313E-15
4.656E+02  2.761E-25  3.410E-15
4.613E+02  2.869E-25  3.511E-15
4.571E+02  2.981E-25  3.614E-15
4.529E+02  3.097E-25  3.720E-15
4.487E+02  3.217E-25  3.830E-15
4.446E+02  3.342E-25  3.942E-15
4.406E+02  3.472E-25  4.057E-15
4.365E+02  3.607E-25  4.176E-15
4.325E+02  3.746E-25  4.298E-15
4.285E+02  3.892E-25  4.424E-15
4.246E+02  4.042E-25  4.553E-15
4.207E+02  4.199E-25  4.686E-15
4.169E+02  4.361E-25  4.822E-15
4.130E+02  4.529E-25  4.962E-15
4.093E+02  4.704E-25  5.107E-15
4.055E+02  4.885E-25  5.255E-15
4.018E+02  5.073E-25  5.407E-15
3.981E+02  5.269E-25  5.564E-15
3.945E+02  5.471E-25  5.725E-15
3.908E+02  5.682E-25  5.890E-15
3.873E+02  5.900E-25  6.060E-15
3.837E+02  6.126E-25  6.235E-15
3.802E+02  6.360E-25  6.414E-15
3.767E+02  6.604E-25  6.599E-15
3.733E+02  6.856E-25  6.788E-15
3.698E+02  7.118E-25  6.983E-15
3.664E+02  7.389E-25  7.182E-15
3.631E+02  7.671E-25  7.387E-15
3.597E+02  7.962E-25  7.598E-15
3.565E+02  8.265E-25  7.814E-15
3.532E+02  8.578E-25  8.036E-15
3.499E+02  8.903E-25  8.264E-15
3.467E+02  9.240E-25  8.498E-15
3.436E+02  9.589E-25  8.738E-15
3.404E+02  9.950E-25  8.985E-15
3.373E+02  1.033E-24  9.238E-15
3.342E+02  1.071E-24  9.497E-15
3.311E+02  1.112E-24  9.763E-15
3.281E+02  1.153E-24  1.004E-14
3.251E+02  1.196E-24  1.032E-14
3.221E+02  1.241E-24  1.060E-14
3.192E+02  1.287E-24  1.090E-14
3.162E+02  1.335E-24  1.120E-14
3.133E+02  1.385E-24  1.151E-14
3.105E+02  1.436E-24  1.183E-14
3.076E+02  1.489E-24  1.215E-14
3.048E+02  1.544E-24  1.249E-14
3.020E+02  1.601E-24  1.283E-14
2.992E+02  1.660E-24  1.318E-14
2.965E+02  1.721E-24  1.354E-14
2.938E+02  1.784E-24  1.390E-14
2.911E+02  1.849E-24  1.428E-14
2.884E+02  1.917E-24  1.466E-14
2.858E+02  1.987E-24  1.506E-14
2.831E+02  2.059E-24  1.546E-14
2.805E+02  2.134E-24  1.588E-14
2.780E+02  2.211E-24  1.630E-14
2.754E+02  2.290E-24  1.673E-14
2.729E+02  2.373E-24  1.718E-14
2.704E+02  2.459E-24  1.763E-14
2.679E+02  2.547E-24  1.810E-14
2.655E+02  2.638E-24  1.858E-14
2.630E+02  2.733E-24  1.907E-14
2.606E+02  2.830E-24  1.957E-14
2.582E+02  2.931E-24  2.008E-14
2.559E+02  3.035E-24  2.060E-14
2.535E+02  3.141E-24  2.112E-14
2.512E+02  3.251E-24  2.166E-14
2.489E+02  3.363E-24  2.220E-14
2.466E+02  3.476E-24  2.274E-14
2.443E+02  3.592E-24  2.328E-14
2.421E+02  3.711E-24  2.383E-14
2.399E+02  3.833E-24  2.439E-14
2.377E+02  3.956E-24  2.494E-14
2.355E+02  4.083E-24  2.551E-14
2.333E+02  4.214E-24  2.608E-14
2.312E+02  4.348E-24  2.666E-14
2.291E+02  4.485E-24  2.726E-14
2.270E+02  4.627E-24  2.786E-14
2.249E+02  4.772E-24  2.847E-14
2.228E+02  4.921E-24  2.909E-14
2.208E+02  5.075E-24  2.972E-14
2.188E+02  5.232E-24  3.036E-14
2.168E+02  5.394E-24  3.101E-14
2.148E+02  5.559E-24  3.167E-14
2.128E+02  5.729E-24  3.234E-14
2.109E+02  5.904E-24  3.302E-14
2.089E+02  6.082E-24  3.371E-14
2.070E+02  6.266E-24  3.441E-14
2.051E+02  6.453E-24  3.511E-14
2.032E+02  6.646E-24  3.583E-14
2.014E+02  6.843E-24  3.655E-14
1.995E+02  7.045E-24  3.729E-14
1.977E+02  7.252E-24  3.803E-14
1.959E+02  7.464E-24  3.878E-14
1.941E+02  7.681E-24  3.955E-14
1.923E+02  7.903E-24  4.032E-14
1.905E+02  8.131E-24  4.110E-14
1.888E+02  8.364E-24  4.189E-14
1.871E+02  8.602E-24  4.269E-14
1.854E+02  8.846E-24  4.349E-14
1.837E+02  9.096E-24  4.431E-14
1.820E+02  9.351E-24  4.514E-14
1.803E+02  9.613E-24  4.597E-14
1.786E+02  9.880E-24  4.682E-14
1.770E+02  1.015E-23  4.768E-14
1.754E+02  1.043E-23  4.854E-14
1.738E+02  1.072E-23  4.942E-14
1.722E+02  1.101E-23  5.030E-14
1.706E+02  1.131E-23  5.120E-14
1.690E+02  1.162E-23  5.210E-14
1.675E+02  1.193E-23  5.302E-14
1.660E+02  1.225E-23  5.395E-14
1.644E+02  1.258E-23  5.489E-14
1.629E+02  1.292E-23  5.584E-14
1.614E+02  1.327E-23  5.681E-14
1.600E+02  1.362E-23  5.779E-14
1.585E+02  1.398E-23  5.879E-14
1.570E+02  1.436E-23  5.980E-14
1.556E+02  1.474E-23  6.082E-14
1.542E+02  1.513E-23  6.187E-14
1.528E+02  1.553E-23  6.293E-14
1.514E+02  1.594E-23  6.401E-14
1.500E+02  1.637E-23  6.510E-14
1.486E+02  1.680E-23  6.621E-14
1.472E+02  1.724E-23  6.733E-14
1.459E+02  1.769E-23  6.845E-14
1.445E+02  1.814E-23  6.956E-14
1.432E+02  1.859E-23  7.064E-14
1.419E+02  1.904E-23  7.167E-14
1.406E+02  1.947E-23  7.263E-14
1.393E+02  1.989E-23  7.350E-14
1.380E+02  2.028E-23  7.428E-14
1.368E+02  2.066E-23  7.495E-14
1.355E+02  2.102E-23  7.554E-14
1.343E+02  2.136E-23  7.608E-14
1.330E+02  2.170E-23  7.658E-14
1.318E+02  2.204E-23  7.705E-14
1.306E+02  2.238E-23  7.753E-14
1.294E+02  2.272E-23  7.801E-14
1.282E+02  2.308E-23  7.849E-14
1.271E+02  2.344E-23  7.899E-14
1.259E+02  2.380E-23  7.949E-14
1.247E+02  2.418E-23  8.001E-14
1.236E+02  2.457E-23  8.054E-14
1.225E+02  2.496E-23  8.108E-14
1.213E+02  2.536E-23  8.163E-14
1.202E+02  2.577E-23  8.218E-14
1.191E+02  2.618E-23  8.273E-14
1.180E+02  2.660E-23  8.329E-14
1.169E+02  2.703E-23  8.384E-14
1.159E+02  2.746E-23  8.439E-14
1.148E+02  2.789E-23  8.494E-14
1.138E+02  2.833E-23  8.549E-14
1.127E+02  2.877E-23  8.604E-14
1.117E+02  2.923E-23  8.658E-14
1.107E+02  2.968E-23  8.712E-14
1.096E+02  3.014E-23  8.766E-14
1.086E+02  3.060E-23  8.818E-14
1.076E+02  3.107E-23  8.870E-14
1.067E+02  3.153E-23  8.921E-14
1.057E+02  3.200E-23  8.971E-14
1.047E+02  3.248E-23  9.021E-14
1.038E+02  3.295E-23  9.068E-14
1.028E+02  3.343E-23  9.115E-14
1.019E+02  3.390E-23  9.160E-14
1.009E+02  3.438E-23  9.203E-14
1.000E+02  3.485E-23  9.245E-14
9.908E+01  3.533E-23  9.285E-14
9.817E+01  3.580E-23  9.323E-14
9.727E+01  3.627E-23  9.360E-14
9.638E+01  3.674E-23  9.394E-14
9.550E+01  3.721E-23  9.427E-14
9.462E+01  3.768E-23  9.458E-14
9.376E+01  3.815E-23  9.487E-14
9.290E+01  3.861E-23  9.513E-14
9.204E+01  3.907E-23  9.538E-14
9.120E+01  3.952E-23  9.561E-14
9.036E+01  3.997E-23  9.581E-14
8.954E+01  4.042E-23  9.600E-14
8.872E+01  4.087E-23  9.617E-14
8.790E+01  4.131E-23  9.632E-14
8.710E+01  4.175E-23  9.646E-14
8.630E+01  4.219E-23  9.657E-14
8.551E+01  4.262E-23  9.666E-14
8.472E+01  4.304E-23  9.673E-14
8.395E+01  4.346E-23  9.678E-14
8.318E+01  4.388E-23  9.681E-14
8.241E+01  4.429E-23  9.682E-14
8.166E+01  4.470E-23  9.681E-14
8.091E+01  4.510E-23  9.678E-14
8.017E+01  4.549E-23  9.673E-14
7.943E+01  4.588E-23  9.666E-14
7.870E+01  4.625E-23  9.656E-14
7.798E+01  4.662E-23  9.645E-14
7.727E+01  4.699E-23  9.631E-14
7.656E+01  4.734E-23  9.615E-14
7.586E+01  4.769E-23  9.597E-14
7.516E+01  4.803E-23  9.577E-14
7.447E+01  4.836E-23  9.554E-14
7.379E+01  4.869E-23  9.530E-14
7.311E+01  4.900E-23  9.503E-14
7.244E+01  4.930E-23  9.474E-14
7.178E+01  4.960E-23  9.443E-14
7.112E+01  4.988E-23  9.410E-14
7.047E+01  5.016E-23  9.376E-14
6.982E+01  5.043E-23  9.341E-14
6.918E+01  5.069E-23  9.303E-14
6.855E+01  5.094E-23  9.263E-14
6.792E+01  5.118E-23  9.221E-14
6.730E+01  5.141E-23  9.178E-14
6.668E+01  5.163E-23  9.133E-14
6.607E+01  5.185E-23  9.086E-14
6.546E+01  5.205E-23  9.038E-14
6.486E+01  5.224E-23  8.988E-14
6.427E+01  5.242E-23  8.937E-14
6.368E+01  5.259E-23  8.884E-14
6.310E+01  5.276E-23  8.830E-14
6.252E+01  5.291E-23  8.775E-14
6.194E+01  5.306E-23  8.718E-14
6.138E+01  5.320E-23  8.661E-14
6.081E+01  5.332E-23  8.602E-14
6.026E+01  5.344E-23  8.541E-14
5.970E+01  5.355E-23  8.480E-14
5.916E+01  5.364E-23  8.417E-14
5.861E+01  5.373E-23  8.353E-14
5.808E+01  5.380E-23  8.289E-14
5.754E+01  5.387E-23  8.223E-14
5.702E+01  5.393E-23  8.156E-14
5.649E+01  5.398E-23  8.089E-14
5.598E+01  5.402E-23  8.021E-14
5.546E+01  5.405E-23  7.952E-14
5.495E+01  5.408E-23  7.883E-14
5.445E+01  5.410E-23  7.813E-14
5.395E+01  5.410E-23  7.743E-14
5.346E+01  5.411E-23  7.672E-14
5.297E+01  5.410E-23  7.600E-14
5.248E+01  5.408E-23  7.529E-14
5.200E+01  5.406E-23  7.456E-14
5.152E+01  5.402E-23  7.383E-14
5.105E+01  5.398E-23  7.310E-14
5.058E+01  5.393E-23  7.236E-14
5.012E+01  5.387E-23  7.162E-14
4.966E+01  5.380E-23  7.087E-14
