Dust emission from Draine & Li (2007): ApJ 657, 810-837
================================================================
         6 = grain model
 4.000E-08 4.000E-01 3.750E-05 = a_01 (cm) , sigma_1 , b_C1/0.92
 2.500E-07 4.000E-01 1.250E-05 = a_02 (cm) , sigma_2 , b_C2/0.92
 3.000E+00 1.000E+04 2.000E+00 = Umin , Umax, beta (dN/dU propto U^{-beta})
 2.434E+01 = <U> 
     mmp83 = radfield
 1.097E-22 = power/H (erg s-1)
 band   nu*P_nu(band) j_nu(band)
 (um)   (erg s-1 H-1)(Jy cm2 sr-1 H-1)
1.270E+00  3.711E-25  1.250E-17 COBE-DIRBE
2.220E+00  4.734E-25  2.788E-17 COBE-DIRBE
3.530E+00  3.104E-24  2.907E-16 COBE-DIRBE
4.880E+00  1.449E-24  1.875E-16 COBE-DIRBE
1.229E+01  1.405E-23  4.581E-15 COBE-DIRBE
2.079E+01  1.629E-23  8.982E-15 COBE-DIRBE
5.599E+01  5.692E-23  8.454E-14 COBE-DIRBE
9.770E+01  3.443E-23  8.923E-14 COBE-DIRBE
1.479E+02  1.671E-23  6.555E-14 COBE-DIRBE
2.479E+02  3.830E-24  2.518E-14 COBE-DIRBE
1.200E+01  1.464E-23  4.661E-15 IRAS
2.500E+01  2.067E-23  1.371E-14 IRAS
6.000E+01  5.498E-23  8.750E-14 IRAS
1.000E+02  3.319E-23  8.803E-14 IRAS
3.550E+00  3.611E-24  3.400E-16 SST-IRAC
4.493E+00  1.013E-24  1.207E-16 SST-IRAC
5.731E+00  8.671E-24  1.318E-15 SST-IRAC
7.872E+00  2.084E-23  4.352E-15 SST-IRAC
2.368E+01  1.822E-23  1.144E-14 SST-MIPS
7.142E+01  4.466E-23  8.461E-14 SST-MIPS
1.559E+02  1.363E-23  5.635E-14 SST-MIPS
1.600E+01  1.246E-23  5.287E-15 SST-IRSPU
2.200E+01  1.769E-23  1.032E-14 SST-IRSPU











lambda    nu*dP/dnu     j_nu
 (um)   (erg s-1 H-1)(Jy cm2 sr-1 H-1)
1.000E+04  7.782E-31  2.064E-19
9.908E+03  8.067E-31  2.120E-19
9.817E+03  8.363E-31  2.178E-19
9.727E+03  8.669E-31  2.237E-19
9.638E+03  8.986E-31  2.297E-19
9.550E+03  9.315E-31  2.360E-19
9.462E+03  9.657E-31  2.424E-19
9.376E+03  1.001E-30  2.490E-19
9.290E+03  1.038E-30  2.557E-19
9.204E+03  1.076E-30  2.626E-19
9.120E+03  1.115E-30  2.698E-19
9.036E+03  1.156E-30  2.771E-19
8.954E+03  1.198E-30  2.846E-19
8.872E+03  1.242E-30  2.922E-19
8.790E+03  1.287E-30  3.001E-19
8.710E+03  1.334E-30  3.082E-19
8.630E+03  1.383E-30  3.165E-19
8.551E+03  1.433E-30  3.251E-19
8.472E+03  1.486E-30  3.339E-19
8.395E+03  1.540E-30  3.429E-19
8.318E+03  1.596E-30  3.522E-19
8.241E+03  1.655E-30  3.617E-19
8.166E+03  1.715E-30  3.715E-19
8.091E+03  1.778E-30  3.816E-19
8.017E+03  1.843E-30  3.920E-19
7.943E+03  1.911E-30  4.027E-19
7.870E+03  1.981E-30  4.136E-19
7.798E+03  2.054E-30  4.249E-19
7.727E+03  2.130E-30  4.365E-19
7.656E+03  2.208E-30  4.484E-19
7.586E+03  2.289E-30  4.607E-19
7.516E+03  2.374E-30  4.733E-19
7.447E+03  2.461E-30  4.862E-19
7.379E+03  2.552E-30  4.995E-19
7.311E+03  2.646E-30  5.132E-19
7.244E+03  2.744E-30  5.273E-19
7.178E+03  2.845E-30  5.418E-19
7.112E+03  2.951E-30  5.566E-19
7.047E+03  3.060E-30  5.719E-19
6.982E+03  3.173E-30  5.877E-19
6.918E+03  3.290E-30  6.038E-19
6.855E+03  3.412E-30  6.204E-19
6.792E+03  3.538E-30  6.375E-19
6.730E+03  3.669E-30  6.550E-19
6.668E+03  3.805E-30  6.731E-19
6.607E+03  3.947E-30  6.917E-19
6.546E+03  4.093E-30  7.108E-19
6.486E+03  4.245E-30  7.304E-19
6.427E+03  4.403E-30  7.506E-19
6.368E+03  4.567E-30  7.714E-19
6.310E+03  4.737E-30  7.928E-19
6.252E+03  4.913E-30  8.148E-19
6.194E+03  5.096E-30  8.374E-19
6.138E+03  5.286E-30  8.607E-19
6.081E+03  5.484E-30  8.846E-19
6.026E+03  5.689E-30  9.092E-19
5.970E+03  5.901E-30  9.346E-19
5.916E+03  6.122E-30  9.606E-19
5.861E+03  6.351E-30  9.874E-19
5.808E+03  6.589E-30  1.015E-18
5.754E+03  6.836E-30  1.043E-18
5.702E+03  7.092E-30  1.073E-18
5.649E+03  7.358E-30  1.103E-18
5.598E+03  7.634E-30  1.134E-18
5.546E+03  7.921E-30  1.165E-18
5.495E+03  8.219E-30  1.198E-18
5.445E+03  8.528E-30  1.232E-18
5.395E+03  8.848E-30  1.266E-18
5.346E+03  9.182E-30  1.302E-18
5.297E+03  9.528E-30  1.339E-18
5.248E+03  9.887E-30  1.376E-18
5.200E+03  1.026E-29  1.415E-18
5.152E+03  1.065E-29  1.455E-18
5.105E+03  1.105E-29  1.496E-18
5.058E+03  1.147E-29  1.539E-18
5.012E+03  1.190E-29  1.582E-18
4.966E+03  1.235E-29  1.627E-18
4.920E+03  1.282E-29  1.673E-18
4.875E+03  1.330E-29  1.720E-18
4.831E+03  1.381E-29  1.769E-18
4.786E+03  1.433E-29  1.819E-18
4.742E+03  1.487E-29  1.871E-18
4.699E+03  1.544E-29  1.924E-18
4.656E+03  1.602E-29  1.979E-18
4.613E+03  1.663E-29  2.035E-18
4.571E+03  1.727E-29  2.093E-18
4.529E+03  1.792E-29  2.153E-18
4.487E+03  1.860E-29  2.215E-18
4.446E+03  1.931E-29  2.278E-18
4.406E+03  2.005E-29  2.343E-18
4.365E+03  2.082E-29  2.410E-18
4.325E+03  2.161E-29  2.479E-18
4.285E+03  2.244E-29  2.551E-18
4.246E+03  2.329E-29  2.624E-18
4.207E+03  2.419E-29  2.699E-18
4.169E+03  2.511E-29  2.777E-18
4.130E+03  2.607E-29  2.857E-18
4.093E+03  2.707E-29  2.939E-18
4.055E+03  2.811E-29  3.024E-18
4.018E+03  2.919E-29  3.111E-18
3.981E+03  3.031E-29  3.201E-18
3.945E+03  3.148E-29  3.293E-18
3.908E+03  3.268E-29  3.389E-18
3.873E+03  3.394E-29  3.486E-18
3.837E+03  3.525E-29  3.587E-18
3.802E+03  3.660E-29  3.691E-18
3.767E+03  3.801E-29  3.798E-18
3.733E+03  3.948E-29  3.909E-18
3.698E+03  4.100E-29  4.022E-18
3.664E+03  4.258E-29  4.139E-18
3.631E+03  4.423E-29  4.260E-18
3.597E+03  4.594E-29  4.384E-18
3.565E+03  4.772E-29  4.512E-18
3.532E+03  4.957E-29  4.644E-18
3.499E+03  5.149E-29  4.779E-18
3.467E+03  5.348E-29  4.919E-18
3.436E+03  5.556E-29  5.063E-18
3.404E+03  5.772E-29  5.212E-18
3.373E+03  5.996E-29  5.365E-18
3.342E+03  6.229E-29  5.522E-18
3.311E+03  6.472E-29  5.685E-18
3.281E+03  6.724E-29  5.852E-18
3.251E+03  6.986E-29  6.024E-18
3.221E+03  7.259E-29  6.202E-18
3.192E+03  7.542E-29  6.385E-18
3.162E+03  7.837E-29  6.573E-18
3.133E+03  8.143E-29  6.768E-18
3.105E+03  8.461E-29  6.968E-18
3.076E+03  8.793E-29  7.174E-18
3.048E+03  9.137E-29  7.387E-18
3.020E+03  9.495E-29  7.606E-18
2.992E+03  9.867E-29  7.832E-18
2.965E+03  1.025E-28  8.063E-18
2.938E+03  1.065E-28  8.302E-18
2.911E+03  1.107E-28  8.548E-18
2.884E+03  1.151E-28  8.802E-18
2.858E+03  1.196E-28  9.063E-18
2.831E+03  1.243E-28  9.333E-18
2.805E+03  1.291E-28  9.611E-18
2.780E+03  1.342E-28  9.897E-18
2.754E+03  1.395E-28  1.019E-17
2.729E+03  1.450E-28  1.050E-17
2.704E+03  1.507E-28  1.081E-17
2.679E+03  1.567E-28  1.113E-17
2.655E+03  1.628E-28  1.147E-17
2.630E+03  1.693E-28  1.181E-17
2.606E+03  1.760E-28  1.216E-17
2.582E+03  1.829E-28  1.253E-17
2.559E+03  1.901E-28  1.290E-17
2.535E+03  1.977E-28  1.329E-17
2.512E+03  2.055E-28  1.369E-17
2.489E+03  2.136E-28  1.410E-17
2.466E+03  2.221E-28  1.453E-17
2.443E+03  2.309E-28  1.497E-17
2.421E+03  2.401E-28  1.542E-17
2.399E+03  2.496E-28  1.589E-17
2.377E+03  2.596E-28  1.637E-17
2.355E+03  2.699E-28  1.686E-17
2.333E+03  2.806E-28  1.737E-17
2.312E+03  2.918E-28  1.790E-17
2.291E+03  3.034E-28  1.844E-17
2.270E+03  3.155E-28  1.900E-17
2.249E+03  3.281E-28  1.958E-17
2.228E+03  3.412E-28  2.017E-17
2.208E+03  3.549E-28  2.078E-17
2.188E+03  3.690E-28  2.142E-17
2.168E+03  3.838E-28  2.207E-17
2.148E+03  3.991E-28  2.274E-17
2.128E+03  4.151E-28  2.343E-17
2.109E+03  4.317E-28  2.415E-17
2.089E+03  4.490E-28  2.488E-17
2.070E+03  4.670E-28  2.564E-17
2.051E+03  4.857E-28  2.643E-17
2.032E+03  5.052E-28  2.723E-17
2.014E+03  5.254E-28  2.807E-17
1.995E+03  5.465E-28  2.892E-17
1.977E+03  5.684E-28  2.981E-17
1.959E+03  5.912E-28  3.072E-17
1.941E+03  6.150E-28  3.166E-17
1.923E+03  6.397E-28  3.263E-17
1.905E+03  6.654E-28  3.363E-17
1.888E+03  6.921E-28  3.466E-17
1.871E+03  7.200E-28  3.573E-17
1.854E+03  7.489E-28  3.682E-17
1.837E+03  7.791E-28  3.795E-17
1.820E+03  8.104E-28  3.912E-17
1.803E+03  8.431E-28  4.032E-17
1.786E+03  8.770E-28  4.156E-17
1.770E+03  9.124E-28  4.284E-17
1.754E+03  9.491E-28  4.416E-17
1.738E+03  9.874E-28  4.552E-17
1.722E+03  1.027E-27  4.692E-17
1.706E+03  1.069E-27  4.836E-17
1.690E+03  1.112E-27  4.985E-17
1.675E+03  1.157E-27  5.139E-17
1.660E+03  1.203E-27  5.297E-17
1.644E+03  1.252E-27  5.461E-17
1.629E+03  1.303E-27  5.629E-17
1.614E+03  1.355E-27  5.803E-17
1.600E+03  1.410E-27  5.982E-17
1.585E+03  1.467E-27  6.167E-17
1.570E+03  1.526E-27  6.357E-17
1.556E+03  1.588E-27  6.553E-17
1.542E+03  1.652E-27  6.756E-17
1.528E+03  1.719E-27  6.964E-17
1.514E+03  1.788E-27  7.180E-17
1.500E+03  1.861E-27  7.401E-17
1.486E+03  1.936E-27  7.630E-17
1.472E+03  2.014E-27  7.866E-17
1.459E+03  2.096E-27  8.110E-17
1.445E+03  2.181E-27  8.361E-17
1.432E+03  2.269E-27  8.619E-17
1.419E+03  2.361E-27  8.886E-17
1.406E+03  2.456E-27  9.161E-17
1.393E+03  2.556E-27  9.445E-17
1.380E+03  2.659E-27  9.737E-17
1.368E+03  2.767E-27  1.004E-16
1.355E+03  2.879E-27  1.035E-16
1.343E+03  2.996E-27  1.067E-16
1.330E+03  3.117E-27  1.100E-16
1.318E+03  3.243E-27  1.134E-16
1.306E+03  3.375E-27  1.169E-16
1.294E+03  3.511E-27  1.205E-16
1.282E+03  3.653E-27  1.243E-16
1.271E+03  3.801E-27  1.281E-16
1.259E+03  3.955E-27  1.321E-16
1.247E+03  4.115E-27  1.362E-16
1.236E+03  4.282E-27  1.404E-16
1.225E+03  4.455E-27  1.447E-16
1.213E+03  4.635E-27  1.492E-16
1.202E+03  4.823E-27  1.538E-16
1.191E+03  5.018E-27  1.586E-16
1.180E+03  5.221E-27  1.634E-16
1.169E+03  5.432E-27  1.685E-16
1.159E+03  5.651E-27  1.737E-16
1.148E+03  5.879E-27  1.791E-16
1.138E+03  6.117E-27  1.846E-16
1.127E+03  6.364E-27  1.903E-16
1.117E+03  6.621E-27  1.961E-16
1.107E+03  6.888E-27  2.022E-16
1.096E+03  7.166E-27  2.084E-16
1.086E+03  7.455E-27  2.148E-16
1.076E+03  7.755E-27  2.214E-16
1.067E+03  8.068E-27  2.283E-16
1.057E+03  8.393E-27  2.353E-16
1.047E+03  8.731E-27  2.425E-16
1.038E+03  9.082E-27  2.500E-16
1.028E+03  9.448E-27  2.576E-16
1.019E+03  9.828E-27  2.655E-16
1.009E+03  1.022E-26  2.737E-16
1.000E+03  1.063E-26  2.821E-16
9.908E+02  1.106E-26  2.907E-16
9.817E+02  1.151E-26  2.996E-16
9.727E+02  1.197E-26  3.088E-16
9.638E+02  1.245E-26  3.183E-16
9.550E+02  1.295E-26  3.280E-16
9.462E+02  1.347E-26  3.381E-16
9.376E+02  1.401E-26  3.484E-16
9.290E+02  1.457E-26  3.590E-16
9.204E+02  1.515E-26  3.700E-16
9.120E+02  1.576E-26  3.813E-16
9.036E+02  1.639E-26  3.929E-16
8.954E+02  1.705E-26  4.049E-16
8.872E+02  1.773E-26  4.172E-16
8.790E+02  1.844E-26  4.299E-16
8.710E+02  1.917E-26  4.429E-16
8.630E+02  1.993E-26  4.563E-16
8.551E+02  2.073E-26  4.702E-16
8.472E+02  2.155E-26  4.844E-16
8.395E+02  2.241E-26  4.990E-16
8.318E+02  2.330E-26  5.141E-16
8.241E+02  2.422E-26  5.296E-16
8.166E+02  2.519E-26  5.455E-16
8.091E+02  2.618E-26  5.619E-16
8.017E+02  2.722E-26  5.788E-16
7.943E+02  2.830E-26  5.962E-16
7.870E+02  2.941E-26  6.141E-16
7.798E+02  3.058E-26  6.325E-16
7.727E+02  3.178E-26  6.514E-16
7.656E+02  3.304E-26  6.709E-16
7.586E+02  3.434E-26  6.909E-16
7.516E+02  3.569E-26  7.115E-16
7.447E+02  3.709E-26  7.328E-16
7.379E+02  3.856E-26  7.547E-16
7.311E+02  4.008E-26  7.772E-16
7.244E+02  4.166E-26  8.005E-16
7.178E+02  4.330E-26  8.244E-16
7.112E+02  4.500E-26  8.490E-16
7.047E+02  4.677E-26  8.743E-16
6.982E+02  4.861E-26  9.004E-16
6.918E+02  5.052E-26  9.272E-16
6.855E+02  5.251E-26  9.548E-16
6.792E+02  5.457E-26  9.832E-16
6.730E+02  5.671E-26  1.012E-15
6.668E+02  5.893E-26  1.042E-15
6.607E+02  6.124E-26  1.073E-15
6.546E+02  6.365E-26  1.105E-15
6.486E+02  6.615E-26  1.138E-15
6.427E+02  6.875E-26  1.172E-15
6.368E+02  7.145E-26  1.207E-15
6.310E+02  7.426E-26  1.243E-15
6.252E+02  7.717E-26  1.280E-15
6.194E+02  8.021E-26  1.318E-15
6.138E+02  8.336E-26  1.357E-15
6.081E+02  8.663E-26  1.397E-15
6.026E+02  9.003E-26  1.439E-15
5.970E+02  9.356E-26  1.482E-15
5.916E+02  9.723E-26  1.526E-15
5.861E+02  1.010E-25  1.571E-15
5.808E+02  1.050E-25  1.618E-15
5.754E+02  1.091E-25  1.666E-15
5.702E+02  1.134E-25  1.715E-15
5.649E+02  1.178E-25  1.766E-15
5.598E+02  1.225E-25  1.818E-15
5.546E+02  1.273E-25  1.872E-15
5.495E+02  1.322E-25  1.928E-15
5.445E+02  1.374E-25  1.985E-15
5.395E+02  1.428E-25  2.044E-15
5.346E+02  1.484E-25  2.104E-15
5.297E+02  1.542E-25  2.166E-15
5.248E+02  1.602E-25  2.230E-15
5.200E+02  1.665E-25  2.296E-15
5.152E+02  1.730E-25  2.364E-15
5.105E+02  1.797E-25  2.434E-15
5.058E+02  1.868E-25  2.506E-15
5.012E+02  1.940E-25  2.580E-15
4.966E+02  2.016E-25  2.656E-15
4.920E+02  2.095E-25  2.734E-15
4.875E+02  2.176E-25  2.814E-15
4.831E+02  2.261E-25  2.897E-15
4.786E+02  2.349E-25  2.982E-15
4.742E+02  2.440E-25  3.070E-15
4.699E+02  2.535E-25  3.160E-15
4.656E+02  2.634E-25  3.253E-15
4.613E+02  2.736E-25  3.348E-15
4.571E+02  2.842E-25  3.446E-15
4.529E+02  2.952E-25  3.547E-15
4.487E+02  3.067E-25  3.651E-15
4.446E+02  3.185E-25  3.757E-15
4.406E+02  3.309E-25  3.867E-15
4.365E+02  3.437E-25  3.979E-15
4.325E+02  3.569E-25  4.095E-15
4.285E+02  3.707E-25  4.214E-15
4.246E+02  3.850E-25  4.336E-15
4.207E+02  3.998E-25  4.462E-15
4.169E+02  4.152E-25  4.591E-15
4.130E+02  4.312E-25  4.724E-15
4.093E+02  4.478E-25  4.861E-15
4.055E+02  4.650E-25  5.002E-15
4.018E+02  4.828E-25  5.146E-15
3.981E+02  5.013E-25  5.294E-15
3.945E+02  5.206E-25  5.447E-15
3.908E+02  5.405E-25  5.604E-15
3.873E+02  5.612E-25  5.765E-15
3.837E+02  5.827E-25  5.930E-15
3.802E+02  6.049E-25  6.100E-15
3.767E+02  6.280E-25  6.275E-15
3.733E+02  6.519E-25  6.454E-15
3.698E+02  6.767E-25  6.639E-15
3.664E+02  7.025E-25  6.828E-15
3.631E+02  7.291E-25  7.022E-15
3.597E+02  7.568E-25  7.222E-15
3.565E+02  7.855E-25  7.427E-15
3.532E+02  8.152E-25  7.637E-15
3.499E+02  8.460E-25  7.853E-15
3.467E+02  8.779E-25  8.075E-15
3.436E+02  9.110E-25  8.302E-15
3.404E+02  9.453E-25  8.536E-15
3.373E+02  9.808E-25  8.775E-15
3.342E+02  1.018E-24  9.021E-15
3.311E+02  1.056E-24  9.273E-15
3.281E+02  1.095E-24  9.532E-15
3.251E+02  1.136E-24  9.797E-15
3.221E+02  1.178E-24  1.007E-14
3.192E+02  1.222E-24  1.035E-14
3.162E+02  1.268E-24  1.063E-14
3.133E+02  1.315E-24  1.093E-14
3.105E+02  1.363E-24  1.123E-14
3.076E+02  1.414E-24  1.154E-14
3.048E+02  1.466E-24  1.185E-14
3.020E+02  1.520E-24  1.218E-14
2.992E+02  1.576E-24  1.251E-14
2.965E+02  1.634E-24  1.285E-14
2.938E+02  1.693E-24  1.320E-14
2.911E+02  1.755E-24  1.355E-14
2.884E+02  1.819E-24  1.392E-14
2.858E+02  1.885E-24  1.429E-14
2.831E+02  1.954E-24  1.467E-14
2.805E+02  2.025E-24  1.507E-14
2.780E+02  2.098E-24  1.547E-14
2.754E+02  2.173E-24  1.588E-14
2.729E+02  2.252E-24  1.630E-14
2.704E+02  2.333E-24  1.673E-14
2.679E+02  2.417E-24  1.717E-14
2.655E+02  2.503E-24  1.763E-14
2.630E+02  2.593E-24  1.809E-14
2.606E+02  2.685E-24  1.856E-14
2.582E+02  2.781E-24  1.905E-14
2.559E+02  2.879E-24  1.954E-14
2.535E+02  2.980E-24  2.004E-14
2.512E+02  3.084E-24  2.055E-14
2.489E+02  3.190E-24  2.106E-14
2.466E+02  3.297E-24  2.157E-14
2.443E+02  3.407E-24  2.208E-14
2.421E+02  3.519E-24  2.260E-14
2.399E+02  3.634E-24  2.312E-14
2.377E+02  3.750E-24  2.364E-14
2.355E+02  3.870E-24  2.417E-14
2.333E+02  3.993E-24  2.471E-14
2.312E+02  4.119E-24  2.526E-14
2.291E+02  4.248E-24  2.582E-14
2.270E+02  4.381E-24  2.638E-14
2.249E+02  4.518E-24  2.695E-14
2.228E+02  4.658E-24  2.754E-14
2.208E+02  4.802E-24  2.813E-14
2.188E+02  4.950E-24  2.873E-14
2.168E+02  5.102E-24  2.934E-14
2.148E+02  5.258E-24  2.996E-14
2.128E+02  5.417E-24  3.058E-14
2.109E+02  5.581E-24  3.122E-14
2.089E+02  5.749E-24  3.186E-14
2.070E+02  5.921E-24  3.251E-14
2.051E+02  6.097E-24  3.317E-14
2.032E+02  6.277E-24  3.384E-14
2.014E+02  6.462E-24  3.452E-14
1.995E+02  6.652E-24  3.520E-14
1.977E+02  6.846E-24  3.590E-14
1.959E+02  7.044E-24  3.660E-14
1.941E+02  7.247E-24  3.731E-14
1.923E+02  7.456E-24  3.803E-14
1.905E+02  7.669E-24  3.876E-14
1.888E+02  7.887E-24  3.950E-14
1.871E+02  8.110E-24  4.024E-14
1.854E+02  8.339E-24  4.100E-14
1.837E+02  8.572E-24  4.176E-14
1.820E+02  8.812E-24  4.253E-14
1.803E+02  9.056E-24  4.331E-14
1.786E+02  9.306E-24  4.410E-14
1.770E+02  9.563E-24  4.490E-14
1.754E+02  9.825E-24  4.571E-14
1.738E+02  1.009E-23  4.653E-14
1.722E+02  1.037E-23  4.736E-14
1.706E+02  1.065E-23  4.819E-14
1.690E+02  1.094E-23  4.904E-14
1.675E+02  1.123E-23  4.990E-14
1.660E+02  1.153E-23  5.077E-14
1.644E+02  1.184E-23  5.166E-14
1.629E+02  1.216E-23  5.256E-14
1.614E+02  1.249E-23  5.347E-14
1.600E+02  1.282E-23  5.440E-14
1.585E+02  1.316E-23  5.534E-14
1.570E+02  1.352E-23  5.630E-14
1.556E+02  1.388E-23  5.728E-14
1.542E+02  1.425E-23  5.828E-14
1.528E+02  1.463E-23  5.930E-14
1.514E+02  1.503E-23  6.033E-14
1.500E+02  1.543E-23  6.139E-14
1.486E+02  1.585E-23  6.246E-14
1.472E+02  1.627E-23  6.354E-14
1.459E+02  1.670E-23  6.463E-14
1.445E+02  1.714E-23  6.570E-14
1.432E+02  1.757E-23  6.675E-14
1.419E+02  1.800E-23  6.774E-14
1.406E+02  1.841E-23  6.866E-14
1.393E+02  1.880E-23  6.948E-14
1.380E+02  1.917E-23  7.021E-14
1.368E+02  1.952E-23  7.083E-14
1.355E+02  1.985E-23  7.136E-14
1.343E+02  2.017E-23  7.184E-14
1.330E+02  2.048E-23  7.227E-14
1.318E+02  2.079E-23  7.269E-14
1.306E+02  2.110E-23  7.310E-14
1.294E+02  2.142E-23  7.352E-14
1.282E+02  2.174E-23  7.395E-14
1.271E+02  2.207E-23  7.438E-14
1.259E+02  2.241E-23  7.483E-14
1.247E+02  2.276E-23  7.530E-14
1.236E+02  2.311E-23  7.577E-14
1.225E+02  2.348E-23  7.626E-14
1.213E+02  2.385E-23  7.676E-14
1.202E+02  2.423E-23  7.728E-14
1.191E+02  2.462E-23  7.779E-14
1.180E+02  2.501E-23  7.831E-14
1.169E+02  2.541E-23  7.882E-14
1.159E+02  2.581E-23  7.933E-14
1.148E+02  2.622E-23  7.985E-14
1.138E+02  2.663E-23  8.037E-14
1.127E+02  2.705E-23  8.088E-14
1.117E+02  2.748E-23  8.140E-14
1.107E+02  2.791E-23  8.192E-14
1.096E+02  2.834E-23  8.243E-14
1.086E+02  2.878E-23  8.294E-14
1.076E+02  2.922E-23  8.344E-14
1.067E+02  2.967E-23  8.394E-14
1.057E+02  3.012E-23  8.443E-14
1.047E+02  3.057E-23  8.492E-14
1.038E+02  3.103E-23  8.539E-14
1.028E+02  3.148E-23  8.585E-14
1.019E+02  3.194E-23  8.629E-14
1.009E+02  3.240E-23  8.673E-14
1.000E+02  3.286E-23  8.715E-14
9.908E+01  3.331E-23  8.755E-14
9.817E+01  3.377E-23  8.795E-14
9.727E+01  3.423E-23  8.833E-14
9.638E+01  3.469E-23  8.870E-14
9.550E+01  3.515E-23  8.905E-14
9.462E+01  3.561E-23  8.939E-14
9.376E+01  3.607E-23  8.971E-14
9.290E+01  3.653E-23  9.002E-14
9.204E+01  3.699E-23  9.031E-14
9.120E+01  3.745E-23  9.059E-14
9.036E+01  3.790E-23  9.085E-14
8.954E+01  3.836E-23  9.109E-14
8.872E+01  3.881E-23  9.133E-14
8.790E+01  3.926E-23  9.154E-14
8.710E+01  3.971E-23  9.174E-14
8.630E+01  4.016E-23  9.193E-14
8.551E+01  4.061E-23  9.211E-14
8.472E+01  4.105E-23  9.225E-14
8.395E+01  4.149E-23  9.239E-14
8.318E+01  4.193E-23  9.252E-14
8.241E+01  4.237E-23  9.262E-14
8.166E+01  4.281E-23  9.272E-14
8.091E+01  4.324E-23  9.281E-14
8.017E+01  4.368E-23  9.288E-14
7.943E+01  4.410E-23  9.293E-14
7.870E+01  4.453E-23  9.296E-14
7.798E+01  4.495E-23  9.298E-14
7.727E+01  4.536E-23  9.298E-14
7.656E+01  4.578E-23  9.296E-14
7.586E+01  4.618E-23  9.293E-14
7.516E+01  4.659E-23  9.289E-14
7.447E+01  4.699E-23  9.283E-14
7.379E+01  4.738E-23  9.273E-14
7.311E+01  4.777E-23  9.264E-14
7.244E+01  4.814E-23  9.251E-14
7.178E+01  4.852E-23  9.238E-14
7.112E+01  4.889E-23  9.223E-14
7.047E+01  4.926E-23  9.209E-14
6.982E+01  4.964E-23  9.193E-14
6.918E+01  5.000E-23  9.176E-14
6.855E+01  5.036E-23  9.157E-14
6.792E+01  5.071E-23  9.136E-14
6.730E+01  5.106E-23  9.114E-14
6.668E+01  5.140E-23  9.091E-14
6.607E+01  5.174E-23  9.068E-14
6.546E+01  5.207E-23  9.042E-14
6.486E+01  5.240E-23  9.016E-14
6.427E+01  5.272E-23  8.988E-14
6.368E+01  5.304E-23  8.960E-14
6.310E+01  5.336E-23  8.930E-14
6.252E+01  5.367E-23  8.900E-14
6.194E+01  5.398E-23  8.869E-14
6.138E+01  5.428E-23  8.838E-14
6.081E+01  5.459E-23  8.805E-14
6.026E+01  5.488E-23  8.772E-14
5.970E+01  5.517E-23  8.737E-14
5.916E+01  5.546E-23  8.702E-14
5.861E+01  5.573E-23  8.665E-14
5.808E+01  5.601E-23  8.628E-14
5.754E+01  5.628E-23  8.591E-14
5.702E+01  5.655E-23  8.553E-14
5.649E+01  5.682E-23  8.514E-14
5.598E+01  5.708E-23  8.476E-14
5.546E+01  5.735E-23  8.437E-14
5.495E+01  5.761E-23  8.397E-14
5.445E+01  5.787E-23  8.358E-14
5.395E+01  5.812E-23  8.318E-14
5.346E+01  5.838E-23  8.278E-14
5.297E+01  5.863E-23  8.237E-14
5.248E+01  5.888E-23  8.196E-14
5.200E+01  5.912E-23  8.155E-14
5.152E+01  5.937E-23  8.114E-14
5.105E+01  5.961E-23  8.072E-14
5.058E+01  5.985E-23  8.030E-14
5.012E+01  6.008E-23  7.988E-14
4.966E+01  6.032E-23  7.945E-14
