Dust emission from Draine & Li (2007): ApJ 657, 810-837
================================================================
         5 = grain model
 4.000E-08 4.000E-01 3.000E-05 = a_01 (cm) , sigma_1 , b_C1/0.92
 2.500E-07 4.000E-01 1.000E-05 = a_02 (cm) , sigma_2 , b_C2/0.92
 1.200E+01 1.000E+05 2.000E+00 = Umin , Umax, beta (dN/dU propto U^{-beta})
 1.083E+02 = <U> 
     mmp83 = radfield
 4.866E-22 = power/H (erg s-1)
 band   nu*P_nu(band) j_nu(band)
 (um)   (erg s-1 H-1)(Jy cm2 sr-1 H-1)
1.270E+00  1.357E-24  4.571E-17 COBE-DIRBE
2.220E+00  1.748E-24  1.029E-16 COBE-DIRBE
3.530E+00  1.145E-23  1.072E-15 COBE-DIRBE
4.880E+00  5.521E-24  7.147E-16 COBE-DIRBE
1.229E+01  6.625E-23  2.160E-14 COBE-DIRBE
2.079E+01  1.207E-22  6.655E-14 COBE-DIRBE
5.599E+01  2.341E-22  3.477E-13 COBE-DIRBE
9.770E+01  9.830E-23  2.547E-13 COBE-DIRBE
1.479E+02  3.734E-23  1.465E-13 COBE-DIRBE
2.479E+02  6.861E-24  4.511E-14 COBE-DIRBE
1.200E+01  6.631E-23  2.111E-14 IRAS
2.500E+01  1.567E-22  1.039E-13 IRAS
6.000E+01  2.203E-22  3.506E-13 IRAS
1.000E+02  9.296E-23  2.466E-13 IRAS
3.550E+00  1.331E-23  1.253E-15 SST-IRAC
4.493E+00  3.828E-24  4.562E-16 SST-IRAC
5.731E+00  3.409E-23  5.183E-15 SST-IRAC
7.872E+00  8.819E-23  1.841E-14 SST-IRAC
2.368E+01  1.456E-22  9.143E-14 SST-MIPS
7.142E+01  1.549E-22  2.935E-13 SST-MIPS
1.559E+02  2.895E-23  1.197E-13 SST-MIPS
1.600E+01  7.125E-23  3.024E-14 SST-IRSPU
2.200E+01  1.400E-22  8.170E-14 SST-IRSPU











lambda    nu*dP/dnu     j_nu
 (um)   (erg s-1 H-1)(Jy cm2 sr-1 H-1)
1.000E+04  9.798E-31  2.599E-19
9.908E+03  1.016E-30  2.670E-19
9.817E+03  1.053E-30  2.742E-19
9.727E+03  1.092E-30  2.817E-19
9.638E+03  1.132E-30  2.893E-19
9.550E+03  1.173E-30  2.972E-19
9.462E+03  1.216E-30  3.053E-19
9.376E+03  1.261E-30  3.136E-19
9.290E+03  1.307E-30  3.221E-19
9.204E+03  1.355E-30  3.309E-19
9.120E+03  1.405E-30  3.399E-19
9.036E+03  1.457E-30  3.491E-19
8.954E+03  1.510E-30  3.586E-19
8.872E+03  1.565E-30  3.683E-19
8.790E+03  1.622E-30  3.782E-19
8.710E+03  1.682E-30  3.885E-19
8.630E+03  1.743E-30  3.990E-19
8.551E+03  1.807E-30  4.098E-19
8.472E+03  1.873E-30  4.209E-19
8.395E+03  1.942E-30  4.324E-19
8.318E+03  2.013E-30  4.441E-19
8.241E+03  2.087E-30  4.562E-19
8.166E+03  2.163E-30  4.686E-19
8.091E+03  2.243E-30  4.814E-19
8.017E+03  2.325E-30  4.945E-19
7.943E+03  2.411E-30  5.080E-19
7.870E+03  2.500E-30  5.219E-19
7.798E+03  2.592E-30  5.362E-19
7.727E+03  2.688E-30  5.508E-19
7.656E+03  2.787E-30  5.659E-19
7.586E+03  2.890E-30  5.814E-19
7.516E+03  2.996E-30  5.974E-19
7.447E+03  3.107E-30  6.138E-19
7.379E+03  3.222E-30  6.307E-19
7.311E+03  3.341E-30  6.480E-19
7.244E+03  3.465E-30  6.659E-19
7.178E+03  3.593E-30  6.842E-19
7.112E+03  3.727E-30  7.031E-19
7.047E+03  3.865E-30  7.225E-19
6.982E+03  4.008E-30  7.424E-19
6.918E+03  4.157E-30  7.629E-19
6.855E+03  4.311E-30  7.839E-19
6.792E+03  4.471E-30  8.056E-19
6.730E+03  4.637E-30  8.278E-19
6.668E+03  4.810E-30  8.507E-19
6.607E+03  4.989E-30  8.743E-19
6.546E+03  5.175E-30  8.985E-19
6.486E+03  5.367E-30  9.235E-19
6.427E+03  5.567E-30  9.491E-19
6.368E+03  5.775E-30  9.755E-19
6.310E+03  5.991E-30  1.003E-18
6.252E+03  6.215E-30  1.031E-18
6.194E+03  6.447E-30  1.059E-18
6.138E+03  6.688E-30  1.089E-18
6.081E+03  6.938E-30  1.119E-18
6.026E+03  7.198E-30  1.151E-18
5.970E+03  7.468E-30  1.183E-18
5.916E+03  7.748E-30  1.216E-18
5.861E+03  8.039E-30  1.250E-18
5.808E+03  8.341E-30  1.285E-18
5.754E+03  8.655E-30  1.321E-18
5.702E+03  8.980E-30  1.358E-18
5.649E+03  9.318E-30  1.396E-18
5.598E+03  9.669E-30  1.436E-18
5.546E+03  1.003E-29  1.476E-18
5.495E+03  1.041E-29  1.518E-18
5.445E+03  1.080E-29  1.561E-18
5.395E+03  1.121E-29  1.605E-18
5.346E+03  1.164E-29  1.650E-18
5.297E+03  1.208E-29  1.697E-18
5.248E+03  1.253E-29  1.745E-18
5.200E+03  1.301E-29  1.794E-18
5.152E+03  1.350E-29  1.845E-18
5.105E+03  1.401E-29  1.897E-18
5.058E+03  1.454E-29  1.951E-18
5.012E+03  1.509E-29  2.007E-18
4.966E+03  1.567E-29  2.064E-18
4.920E+03  1.626E-29  2.122E-18
4.875E+03  1.688E-29  2.183E-18
4.831E+03  1.752E-29  2.245E-18
4.786E+03  1.819E-29  2.309E-18
4.742E+03  1.888E-29  2.375E-18
4.699E+03  1.960E-29  2.443E-18
4.656E+03  2.035E-29  2.513E-18
4.613E+03  2.112E-29  2.585E-18
4.571E+03  2.193E-29  2.659E-18
4.529E+03  2.277E-29  2.735E-18
4.487E+03  2.364E-29  2.814E-18
4.446E+03  2.454E-29  2.894E-18
4.406E+03  2.548E-29  2.978E-18
4.365E+03  2.646E-29  3.063E-18
4.325E+03  2.747E-29  3.152E-18
4.285E+03  2.853E-29  3.243E-18
4.246E+03  2.962E-29  3.336E-18
4.207E+03  3.076E-29  3.433E-18
4.169E+03  3.194E-29  3.532E-18
4.130E+03  3.317E-29  3.634E-18
4.093E+03  3.445E-29  3.739E-18
4.055E+03  3.577E-29  3.848E-18
4.018E+03  3.715E-29  3.960E-18
3.981E+03  3.858E-29  4.075E-18
3.945E+03  4.007E-29  4.193E-18
3.908E+03  4.162E-29  4.314E-18
3.873E+03  4.322E-29  4.440E-18
3.837E+03  4.489E-29  4.569E-18
3.802E+03  4.663E-29  4.702E-18
3.767E+03  4.843E-29  4.839E-18
3.733E+03  5.031E-29  4.981E-18
3.698E+03  5.225E-29  5.126E-18
3.664E+03  5.428E-29  5.276E-18
3.631E+03  5.639E-29  5.431E-18
3.597E+03  5.858E-29  5.590E-18
3.565E+03  6.085E-29  5.754E-18
3.532E+03  6.322E-29  5.923E-18
3.499E+03  6.568E-29  6.097E-18
3.467E+03  6.824E-29  6.277E-18
3.436E+03  7.090E-29  6.462E-18
3.404E+03  7.367E-29  6.652E-18
3.373E+03  7.655E-29  6.849E-18
3.342E+03  7.954E-29  7.051E-18
3.311E+03  8.265E-29  7.260E-18
3.281E+03  8.589E-29  7.475E-18
3.251E+03  8.925E-29  7.696E-18
3.221E+03  9.275E-29  7.925E-18
3.192E+03  9.639E-29  8.160E-18
3.162E+03  1.002E-28  8.403E-18
3.133E+03  1.041E-28  8.653E-18
3.105E+03  1.082E-28  8.910E-18
3.076E+03  1.125E-28  9.176E-18
3.048E+03  1.169E-28  9.450E-18
3.020E+03  1.215E-28  9.732E-18
2.992E+03  1.263E-28  1.002E-17
2.965E+03  1.312E-28  1.032E-17
2.938E+03  1.364E-28  1.063E-17
2.911E+03  1.418E-28  1.095E-17
2.884E+03  1.474E-28  1.127E-17
2.858E+03  1.532E-28  1.161E-17
2.831E+03  1.592E-28  1.196E-17
2.805E+03  1.655E-28  1.232E-17
2.780E+03  1.721E-28  1.269E-17
2.754E+03  1.789E-28  1.307E-17
2.729E+03  1.859E-28  1.346E-17
2.704E+03  1.933E-28  1.387E-17
2.679E+03  2.010E-28  1.428E-17
2.655E+03  2.090E-28  1.471E-17
2.630E+03  2.173E-28  1.516E-17
2.606E+03  2.259E-28  1.562E-17
2.582E+03  2.349E-28  1.609E-17
2.559E+03  2.442E-28  1.657E-17
2.535E+03  2.539E-28  1.708E-17
2.512E+03  2.641E-28  1.759E-17
2.489E+03  2.746E-28  1.813E-17
2.466E+03  2.856E-28  1.868E-17
2.443E+03  2.970E-28  1.925E-17
2.421E+03  3.088E-28  1.983E-17
2.399E+03  3.212E-28  2.044E-17
2.377E+03  3.340E-28  2.106E-17
2.355E+03  3.474E-28  2.170E-17
2.333E+03  3.613E-28  2.237E-17
2.312E+03  3.758E-28  2.305E-17
2.291E+03  3.909E-28  2.375E-17
2.270E+03  4.066E-28  2.448E-17
2.249E+03  4.229E-28  2.523E-17
2.228E+03  4.399E-28  2.600E-17
2.208E+03  4.576E-28  2.680E-17
2.188E+03  4.760E-28  2.762E-17
2.168E+03  4.952E-28  2.847E-17
2.148E+03  5.151E-28  2.935E-17
2.128E+03  5.359E-28  3.025E-17
2.109E+03  5.575E-28  3.118E-17
2.089E+03  5.800E-28  3.214E-17
2.070E+03  6.034E-28  3.313E-17
2.051E+03  6.277E-28  3.415E-17
2.032E+03  6.531E-28  3.521E-17
2.014E+03  6.795E-28  3.630E-17
1.995E+03  7.070E-28  3.742E-17
1.977E+03  7.356E-28  3.857E-17
1.959E+03  7.653E-28  3.977E-17
1.941E+03  7.963E-28  4.100E-17
1.923E+03  8.285E-28  4.226E-17
1.905E+03  8.621E-28  4.357E-17
1.888E+03  8.970E-28  4.492E-17
1.871E+03  9.334E-28  4.632E-17
1.854E+03  9.713E-28  4.775E-17
1.837E+03  1.011E-27  4.924E-17
1.820E+03  1.052E-27  5.077E-17
1.803E+03  1.094E-27  5.234E-17
1.786E+03  1.139E-27  5.397E-17
1.770E+03  1.185E-27  5.565E-17
1.754E+03  1.233E-27  5.739E-17
1.738E+03  1.284E-27  5.917E-17
1.722E+03  1.336E-27  6.102E-17
1.706E+03  1.390E-27  6.292E-17
1.690E+03  1.447E-27  6.488E-17
1.675E+03  1.506E-27  6.691E-17
1.660E+03  1.567E-27  6.900E-17
1.644E+03  1.631E-27  7.115E-17
1.629E+03  1.698E-27  7.337E-17
1.614E+03  1.767E-27  7.567E-17
1.600E+03  1.839E-27  7.803E-17
1.585E+03  1.914E-27  8.047E-17
1.570E+03  1.992E-27  8.299E-17
1.556E+03  2.074E-27  8.559E-17
1.542E+03  2.158E-27  8.827E-17
1.528E+03  2.247E-27  9.103E-17
1.514E+03  2.338E-27  9.388E-17
1.500E+03  2.434E-27  9.682E-17
1.486E+03  2.533E-27  9.986E-17
1.472E+03  2.637E-27  1.030E-16
1.459E+03  2.745E-27  1.062E-16
1.445E+03  2.857E-27  1.096E-16
1.432E+03  2.974E-27  1.130E-16
1.419E+03  3.096E-27  1.166E-16
1.406E+03  3.223E-27  1.202E-16
1.393E+03  3.355E-27  1.240E-16
1.380E+03  3.493E-27  1.279E-16
1.368E+03  3.636E-27  1.319E-16
1.355E+03  3.785E-27  1.361E-16
1.343E+03  3.940E-27  1.403E-16
1.330E+03  4.102E-27  1.448E-16
1.318E+03  4.270E-27  1.493E-16
1.306E+03  4.445E-27  1.540E-16
1.294E+03  4.627E-27  1.589E-16
1.282E+03  4.817E-27  1.639E-16
1.271E+03  5.015E-27  1.690E-16
1.259E+03  5.220E-27  1.743E-16
1.247E+03  5.435E-27  1.798E-16
1.236E+03  5.658E-27  1.855E-16
1.225E+03  5.890E-27  1.913E-16
1.213E+03  6.131E-27  1.973E-16
1.202E+03  6.383E-27  2.035E-16
1.191E+03  6.644E-27  2.100E-16
1.180E+03  6.917E-27  2.166E-16
1.169E+03  7.201E-27  2.234E-16
1.159E+03  7.496E-27  2.304E-16
1.148E+03  7.803E-27  2.377E-16
1.138E+03  8.123E-27  2.451E-16
1.127E+03  8.456E-27  2.528E-16
1.117E+03  8.803E-27  2.608E-16
1.107E+03  9.164E-27  2.690E-16
1.096E+03  9.539E-27  2.774E-16
1.086E+03  9.930E-27  2.862E-16
1.076E+03  1.034E-26  2.952E-16
1.067E+03  1.076E-26  3.044E-16
1.057E+03  1.120E-26  3.140E-16
1.047E+03  1.166E-26  3.238E-16
1.038E+03  1.214E-26  3.340E-16
1.028E+03  1.263E-26  3.445E-16
1.019E+03  1.315E-26  3.553E-16
1.009E+03  1.369E-26  3.664E-16
1.000E+03  1.425E-26  3.779E-16
9.908E+02  1.483E-26  3.898E-16
9.817E+02  1.544E-26  4.020E-16
9.727E+02  1.607E-26  4.146E-16
9.638E+02  1.673E-26  4.276E-16
9.550E+02  1.741E-26  4.410E-16
9.462E+02  1.812E-26  4.549E-16
9.376E+02  1.886E-26  4.691E-16
9.290E+02  1.963E-26  4.838E-16
9.204E+02  2.044E-26  4.989E-16
9.120E+02  2.127E-26  5.145E-16
9.036E+02  2.214E-26  5.306E-16
8.954E+02  2.304E-26  5.472E-16
8.872E+02  2.398E-26  5.643E-16
8.790E+02  2.496E-26  5.819E-16
8.710E+02  2.597E-26  6.000E-16
8.630E+02  2.703E-26  6.187E-16
8.551E+02  2.813E-26  6.380E-16
8.472E+02  2.927E-26  6.578E-16
8.395E+02  3.046E-26  6.782E-16
8.318E+02  3.170E-26  6.993E-16
8.241E+02  3.298E-26  7.210E-16
8.166E+02  3.432E-26  7.433E-16
8.091E+02  3.571E-26  7.664E-16
8.017E+02  3.715E-26  7.901E-16
7.943E+02  3.866E-26  8.145E-16
7.870E+02  4.022E-26  8.397E-16
7.798E+02  4.185E-26  8.656E-16
7.727E+02  4.354E-26  8.923E-16
7.656E+02  4.529E-26  9.198E-16
7.586E+02  4.712E-26  9.482E-16
7.516E+02  4.902E-26  9.774E-16
7.447E+02  5.100E-26  1.008E-15
7.379E+02  5.306E-26  1.039E-15
7.311E+02  5.521E-26  1.071E-15
7.244E+02  5.744E-26  1.104E-15
7.178E+02  5.976E-26  1.138E-15
7.112E+02  6.218E-26  1.173E-15
7.047E+02  6.469E-26  1.209E-15
6.982E+02  6.730E-26  1.247E-15
6.918E+02  7.002E-26  1.285E-15
6.855E+02  7.285E-26  1.325E-15
6.792E+02  7.579E-26  1.366E-15
6.730E+02  7.885E-26  1.407E-15
6.668E+02  8.202E-26  1.451E-15
6.607E+02  8.532E-26  1.495E-15
6.546E+02  8.877E-26  1.541E-15
6.486E+02  9.236E-26  1.589E-15
6.427E+02  9.610E-26  1.638E-15
6.368E+02  9.999E-26  1.689E-15
6.310E+02  1.040E-25  1.741E-15
6.252E+02  1.082E-25  1.795E-15
6.194E+02  1.126E-25  1.851E-15
6.138E+02  1.172E-25  1.908E-15
6.081E+02  1.219E-25  1.967E-15
6.026E+02  1.269E-25  2.028E-15
5.970E+02  1.320E-25  2.091E-15
5.916E+02  1.374E-25  2.155E-15
5.861E+02  1.429E-25  2.222E-15
5.808E+02  1.487E-25  2.291E-15
5.754E+02  1.547E-25  2.362E-15
5.702E+02  1.610E-25  2.435E-15
5.649E+02  1.675E-25  2.511E-15
5.598E+02  1.743E-25  2.588E-15
5.546E+02  1.814E-25  2.669E-15
5.495E+02  1.887E-25  2.751E-15
5.445E+02  1.964E-25  2.837E-15
5.395E+02  2.044E-25  2.925E-15
5.346E+02  2.126E-25  3.015E-15
5.297E+02  2.213E-25  3.109E-15
5.248E+02  2.302E-25  3.205E-15
5.200E+02  2.396E-25  3.305E-15
5.152E+02  2.493E-25  3.407E-15
5.105E+02  2.594E-25  3.513E-15
5.058E+02  2.699E-25  3.622E-15
5.012E+02  2.809E-25  3.734E-15
4.966E+02  2.923E-25  3.850E-15
4.920E+02  3.041E-25  3.969E-15
4.875E+02  3.164E-25  4.092E-15
4.831E+02  3.293E-25  4.219E-15
4.786E+02  3.426E-25  4.350E-15
4.742E+02  3.565E-25  4.484E-15
4.699E+02  3.709E-25  4.623E-15
4.656E+02  3.859E-25  4.766E-15
4.613E+02  4.016E-25  4.914E-15
4.571E+02  4.178E-25  5.066E-15
4.529E+02  4.348E-25  5.223E-15
4.487E+02  4.524E-25  5.385E-15
4.446E+02  4.707E-25  5.551E-15
4.406E+02  4.897E-25  5.723E-15
4.365E+02  5.095E-25  5.899E-15
4.325E+02  5.301E-25  6.081E-15
4.285E+02  5.515E-25  6.269E-15
4.246E+02  5.738E-25  6.463E-15
4.207E+02  5.970E-25  6.662E-15
4.169E+02  6.211E-25  6.868E-15
4.130E+02  6.462E-25  7.080E-15
4.093E+02  6.723E-25  7.298E-15
4.055E+02  6.994E-25  7.523E-15
4.018E+02  7.276E-25  7.755E-15
3.981E+02  7.570E-25  7.994E-15
3.945E+02  7.875E-25  8.240E-15
3.908E+02  8.193E-25  8.494E-15
3.873E+02  8.523E-25  8.755E-15
3.837E+02  8.866E-25  9.024E-15
3.802E+02  9.224E-25  9.302E-15
3.767E+02  9.595E-25  9.588E-15
3.733E+02  9.981E-25  9.882E-15
3.698E+02  1.038E-24  1.019E-14
3.664E+02  1.080E-24  1.050E-14
3.631E+02  1.123E-24  1.082E-14
3.597E+02  1.169E-24  1.115E-14
3.565E+02  1.215E-24  1.149E-14
3.532E+02  1.264E-24  1.184E-14
3.499E+02  1.315E-24  1.221E-14
3.467E+02  1.368E-24  1.258E-14
3.436E+02  1.422E-24  1.296E-14
3.404E+02  1.479E-24  1.336E-14
3.373E+02  1.538E-24  1.376E-14
3.342E+02  1.600E-24  1.418E-14
3.311E+02  1.664E-24  1.461E-14
3.281E+02  1.730E-24  1.506E-14
3.251E+02  1.799E-24  1.551E-14
3.221E+02  1.870E-24  1.598E-14
3.192E+02  1.945E-24  1.646E-14
3.162E+02  2.022E-24  1.696E-14
3.133E+02  2.102E-24  1.747E-14
3.105E+02  2.186E-24  1.800E-14
3.076E+02  2.272E-24  1.854E-14
3.048E+02  2.362E-24  1.910E-14
3.020E+02  2.456E-24  1.967E-14
2.992E+02  2.553E-24  2.026E-14
2.965E+02  2.653E-24  2.087E-14
2.938E+02  2.758E-24  2.149E-14
2.911E+02  2.866E-24  2.213E-14
2.884E+02  2.979E-24  2.279E-14
2.858E+02  3.096E-24  2.347E-14
2.831E+02  3.217E-24  2.416E-14
2.805E+02  3.343E-24  2.488E-14
2.780E+02  3.474E-24  2.561E-14
2.754E+02  3.609E-24  2.637E-14
2.729E+02  3.751E-24  2.715E-14
2.704E+02  3.897E-24  2.795E-14
2.679E+02  4.049E-24  2.878E-14
2.655E+02  4.207E-24  2.962E-14
2.630E+02  4.371E-24  3.050E-14
2.606E+02  4.541E-24  3.139E-14
2.582E+02  4.717E-24  3.231E-14
2.559E+02  4.899E-24  3.325E-14
2.535E+02  5.087E-24  3.421E-14
2.512E+02  5.282E-24  3.519E-14
2.489E+02  5.480E-24  3.618E-14
2.466E+02  5.682E-24  3.717E-14
2.443E+02  5.890E-24  3.818E-14
2.421E+02  6.105E-24  3.920E-14
2.399E+02  6.325E-24  4.025E-14
2.377E+02  6.549E-24  4.129E-14
2.355E+02  6.780E-24  4.236E-14
2.333E+02  7.019E-24  4.345E-14
2.312E+02  7.266E-24  4.456E-14
2.291E+02  7.521E-24  4.570E-14
2.270E+02  7.783E-24  4.686E-14
2.249E+02  8.054E-24  4.805E-14
2.228E+02  8.334E-24  4.926E-14
2.208E+02  8.622E-24  5.050E-14
2.188E+02  8.920E-24  5.176E-14
2.168E+02  9.227E-24  5.305E-14
2.148E+02  9.543E-24  5.437E-14
2.128E+02  9.869E-24  5.571E-14
2.109E+02  1.021E-23  5.708E-14
2.089E+02  1.055E-23  5.848E-14
2.070E+02  1.091E-23  5.990E-14
2.051E+02  1.128E-23  6.135E-14
2.032E+02  1.165E-23  6.283E-14
2.014E+02  1.204E-23  6.433E-14
1.995E+02  1.245E-23  6.587E-14
1.977E+02  1.286E-23  6.743E-14
1.959E+02  1.328E-23  6.903E-14
1.941E+02  1.372E-23  7.065E-14
1.923E+02  1.417E-23  7.230E-14
1.905E+02  1.464E-23  7.398E-14
1.888E+02  1.512E-23  7.570E-14
1.871E+02  1.561E-23  7.745E-14
1.854E+02  1.611E-23  7.922E-14
1.837E+02  1.663E-23  8.103E-14
1.820E+02  1.717E-23  8.288E-14
1.803E+02  1.772E-23  8.475E-14
1.786E+02  1.829E-23  8.666E-14
1.770E+02  1.887E-23  8.861E-14
1.754E+02  1.947E-23  9.059E-14
1.738E+02  2.009E-23  9.261E-14
1.722E+02  2.073E-23  9.466E-14
1.706E+02  2.138E-23  9.676E-14
1.690E+02  2.205E-23  9.889E-14
1.675E+02  2.275E-23  1.011E-13
1.660E+02  2.346E-23  1.033E-13
1.644E+02  2.420E-23  1.056E-13
1.629E+02  2.496E-23  1.079E-13
1.614E+02  2.574E-23  1.102E-13
1.600E+02  2.654E-23  1.126E-13
1.585E+02  2.738E-23  1.151E-13
1.570E+02  2.823E-23  1.176E-13
1.556E+02  2.912E-23  1.202E-13
1.542E+02  3.004E-23  1.228E-13
1.528E+02  3.098E-23  1.255E-13
1.514E+02  3.196E-23  1.283E-13
1.500E+02  3.297E-23  1.311E-13
1.486E+02  3.400E-23  1.340E-13
1.472E+02  3.507E-23  1.370E-13
1.459E+02  3.617E-23  1.400E-13
1.445E+02  3.728E-23  1.429E-13
1.432E+02  3.841E-23  1.459E-13
1.419E+02  3.953E-23  1.488E-13
1.406E+02  4.065E-23  1.516E-13
1.393E+02  4.173E-23  1.542E-13
1.380E+02  4.278E-23  1.567E-13
1.368E+02  4.380E-23  1.589E-13
1.355E+02  4.480E-23  1.610E-13
1.343E+02  4.577E-23  1.630E-13
1.330E+02  4.675E-23  1.650E-13
1.318E+02  4.773E-23  1.669E-13
1.306E+02  4.873E-23  1.688E-13
1.294E+02  4.976E-23  1.708E-13
1.282E+02  5.081E-23  1.728E-13
1.271E+02  5.188E-23  1.749E-13
1.259E+02  5.299E-23  1.770E-13
1.247E+02  5.413E-23  1.791E-13
1.236E+02  5.530E-23  1.813E-13
1.225E+02  5.651E-23  1.836E-13
1.213E+02  5.774E-23  1.858E-13
1.202E+02  5.901E-23  1.882E-13
1.191E+02  6.030E-23  1.905E-13
1.180E+02  6.162E-23  1.929E-13
1.169E+02  6.297E-23  1.953E-13
1.159E+02  6.434E-23  1.978E-13
1.148E+02  6.574E-23  2.002E-13
1.138E+02  6.717E-23  2.027E-13
1.127E+02  6.862E-23  2.052E-13
1.117E+02  7.011E-23  2.077E-13
1.107E+02  7.163E-23  2.103E-13
1.096E+02  7.317E-23  2.128E-13
1.086E+02  7.475E-23  2.154E-13
1.076E+02  7.634E-23  2.180E-13
1.067E+02  7.796E-23  2.206E-13
1.057E+02  7.961E-23  2.232E-13
1.047E+02  8.129E-23  2.258E-13
1.038E+02  8.299E-23  2.284E-13
1.028E+02  8.471E-23  2.310E-13
1.019E+02  8.644E-23  2.336E-13
1.009E+02  8.820E-23  2.361E-13
1.000E+02  8.999E-23  2.387E-13
9.908E+01  9.179E-23  2.412E-13
9.817E+01  9.361E-23  2.438E-13
9.727E+01  9.545E-23  2.463E-13
9.638E+01  9.732E-23  2.488E-13
9.550E+01  9.921E-23  2.513E-13
9.462E+01  1.011E-22  2.538E-13
9.376E+01  1.030E-22  2.562E-13
9.290E+01  1.050E-22  2.587E-13
9.204E+01  1.069E-22  2.611E-13
9.120E+01  1.089E-22  2.634E-13
9.036E+01  1.109E-22  2.658E-13
8.954E+01  1.129E-22  2.681E-13
8.872E+01  1.149E-22  2.704E-13
8.790E+01  1.170E-22  2.727E-13
8.710E+01  1.190E-22  2.749E-13
8.630E+01  1.211E-22  2.772E-13
8.551E+01  1.232E-22  2.794E-13
8.472E+01  1.253E-22  2.815E-13
8.395E+01  1.274E-22  2.837E-13
8.318E+01  1.295E-22  2.858E-13
8.241E+01  1.317E-22  2.879E-13
8.166E+01  1.338E-22  2.899E-13
8.091E+01  1.360E-22  2.919E-13
8.017E+01  1.382E-22  2.939E-13
7.943E+01  1.404E-22  2.959E-13
7.870E+01  1.426E-22  2.978E-13
7.798E+01  1.448E-22  2.996E-13
7.727E+01  1.471E-22  3.014E-13
7.656E+01  1.493E-22  3.032E-13
7.586E+01  1.515E-22  3.049E-13
7.516E+01  1.538E-22  3.066E-13
7.447E+01  1.561E-22  3.083E-13
7.379E+01  1.583E-22  3.099E-13
7.311E+01  1.606E-22  3.114E-13
7.244E+01  1.628E-22  3.129E-13
7.178E+01  1.651E-22  3.143E-13
7.112E+01  1.674E-22  3.157E-13
7.047E+01  1.697E-22  3.171E-13
6.982E+01  1.720E-22  3.185E-13
6.918E+01  1.743E-22  3.198E-13
6.855E+01  1.766E-22  3.211E-13
6.792E+01  1.789E-22  3.223E-13
6.730E+01  1.812E-22  3.234E-13
6.668E+01  1.835E-22  3.246E-13
6.607E+01  1.858E-22  3.257E-13
6.546E+01  1.881E-22  3.267E-13
6.486E+01  1.905E-22  3.277E-13
6.427E+01  1.928E-22  3.287E-13
6.368E+01  1.951E-22  3.296E-13
6.310E+01  1.975E-22  3.305E-13
6.252E+01  1.998E-22  3.314E-13
6.194E+01  2.022E-22  3.322E-13
6.138E+01  2.046E-22  3.331E-13
6.081E+01  2.069E-22  3.338E-13
6.026E+01  2.093E-22  3.346E-13
5.970E+01  2.117E-22  3.353E-13
5.916E+01  2.141E-22  3.359E-13
5.861E+01  2.165E-22  3.365E-13
5.808E+01  2.188E-22  3.371E-13
5.754E+01  2.212E-22  3.377E-13
5.702E+01  2.237E-22  3.383E-13
5.649E+01  2.261E-22  3.388E-13
5.598E+01  2.285E-22  3.393E-13
5.546E+01  2.310E-22  3.398E-13
5.495E+01  2.334E-22  3.403E-13
5.445E+01  2.359E-22  3.408E-13
5.395E+01  2.384E-22  3.412E-13
5.346E+01  2.410E-22  3.417E-13
5.297E+01  2.435E-22  3.421E-13
5.248E+01  2.460E-22  3.425E-13
5.200E+01  2.486E-22  3.429E-13
5.152E+01  2.512E-22  3.433E-13
5.105E+01  2.538E-22  3.437E-13
5.058E+01  2.565E-22  3.441E-13
5.012E+01  2.591E-22  3.445E-13
4.966E+01  2.618E-22  3.448E-13
