Dust emission from Draine & Li (2007): ApJ 657, 810-837
================================================================
         6 = grain model
 4.000E-08 4.000E-01 3.750E-05 = a_01 (cm) , sigma_1 , b_C1/0.92
 2.500E-07 4.000E-01 1.250E-05 = a_02 (cm) , sigma_2 , b_C2/0.92
 7.000E-01 1.000E+03 2.000E+00 = Umin , Umax, beta (dN/dU propto U^{-beta})
 5.089E+00 = <U> 
     mmp83 = radfield
 2.295E-23 = power/H (erg s-1)
 band   nu*P_nu(band) j_nu(band)
 (um)   (erg s-1 H-1)(Jy cm2 sr-1 H-1)
1.270E+00  7.736E-26  2.606E-18 COBE-DIRBE
2.220E+00  9.862E-26  5.807E-18 COBE-DIRBE
3.530E+00  6.460E-25  6.049E-17 COBE-DIRBE
4.880E+00  2.999E-25  3.882E-17 COBE-DIRBE
1.229E+01  2.660E-24  8.670E-16 COBE-DIRBE
2.079E+01  2.260E-24  1.246E-15 COBE-DIRBE
5.599E+01  1.111E-23  1.651E-14 COBE-DIRBE
9.770E+01  9.997E-24  2.591E-14 COBE-DIRBE
1.479E+02  6.326E-24  2.482E-14 COBE-DIRBE
2.479E+02  1.882E-24  1.238E-14 COBE-DIRBE
1.200E+01  2.809E-24  8.943E-16 IRAS
2.500E+01  2.451E-24  1.626E-15 IRAS
6.000E+01  1.114E-23  1.773E-14 IRAS
1.000E+02  9.821E-24  2.605E-14 IRAS
3.550E+00  7.513E-25  7.075E-17 SST-IRAC
4.493E+00  2.100E-25  2.503E-17 SST-IRAC
5.731E+00  1.779E-24  2.704E-16 SST-IRAC
7.872E+00  4.121E-24  8.605E-16 SST-IRAC
2.368E+01  2.082E-24  1.308E-15 SST-MIPS
7.142E+01  1.050E-23  1.990E-14 SST-MIPS
1.559E+02  5.440E-24  2.250E-14 SST-MIPS
1.600E+01  2.190E-24  9.293E-16 SST-IRSPU
2.200E+01  2.140E-24  1.249E-15 SST-IRSPU











lambda    nu*dP/dnu     j_nu
 (um)   (erg s-1 H-1)(Jy cm2 sr-1 H-1)
1.000E+04  5.978E-31  1.586E-19
9.908E+03  6.197E-31  1.629E-19
9.817E+03  6.423E-31  1.673E-19
9.727E+03  6.658E-31  1.718E-19
9.638E+03  6.901E-31  1.764E-19
9.550E+03  7.153E-31  1.812E-19
9.462E+03  7.415E-31  1.861E-19
9.376E+03  7.686E-31  1.911E-19
9.290E+03  7.967E-31  1.963E-19
9.204E+03  8.258E-31  2.016E-19
9.120E+03  8.560E-31  2.071E-19
9.036E+03  8.873E-31  2.127E-19
8.954E+03  9.196E-31  2.184E-19
8.872E+03  9.530E-31  2.243E-19
8.790E+03  9.877E-31  2.303E-19
8.710E+03  1.024E-30  2.365E-19
8.630E+03  1.061E-30  2.428E-19
8.551E+03  1.100E-30  2.494E-19
8.472E+03  1.140E-30  2.561E-19
8.395E+03  1.181E-30  2.630E-19
8.318E+03  1.224E-30  2.701E-19
8.241E+03  1.269E-30  2.774E-19
8.166E+03  1.315E-30  2.849E-19
8.091E+03  1.364E-30  2.926E-19
8.017E+03  1.413E-30  3.006E-19
7.943E+03  1.465E-30  3.087E-19
7.870E+03  1.519E-30  3.171E-19
7.798E+03  1.575E-30  3.257E-19
7.727E+03  1.632E-30  3.346E-19
7.656E+03  1.692E-30  3.437E-19
7.586E+03  1.754E-30  3.530E-19
7.516E+03  1.819E-30  3.626E-19
7.447E+03  1.886E-30  3.725E-19
7.379E+03  1.955E-30  3.827E-19
7.311E+03  2.027E-30  3.931E-19
7.244E+03  2.102E-30  4.039E-19
7.178E+03  2.179E-30  4.149E-19
7.112E+03  2.260E-30  4.263E-19
7.047E+03  2.343E-30  4.379E-19
6.982E+03  2.429E-30  4.499E-19
6.918E+03  2.519E-30  4.623E-19
6.855E+03  2.612E-30  4.749E-19
6.792E+03  2.708E-30  4.879E-19
6.730E+03  2.808E-30  5.013E-19
6.668E+03  2.912E-30  5.151E-19
6.607E+03  3.020E-30  5.292E-19
6.546E+03  3.132E-30  5.438E-19
6.486E+03  3.248E-30  5.588E-19
6.427E+03  3.368E-30  5.741E-19
6.368E+03  3.493E-30  5.900E-19
6.310E+03  3.622E-30  6.063E-19
6.252E+03  3.757E-30  6.230E-19
6.194E+03  3.896E-30  6.402E-19
6.138E+03  4.041E-30  6.579E-19
6.081E+03  4.192E-30  6.762E-19
6.026E+03  4.348E-30  6.949E-19
5.970E+03  4.510E-30  7.142E-19
5.916E+03  4.678E-30  7.340E-19
5.861E+03  4.852E-30  7.544E-19
5.808E+03  5.033E-30  7.754E-19
5.754E+03  5.221E-30  7.969E-19
5.702E+03  5.416E-30  8.191E-19
5.649E+03  5.619E-30  8.420E-19
5.598E+03  5.829E-30  8.654E-19
5.546E+03  6.047E-30  8.896E-19
5.495E+03  6.273E-30  9.145E-19
5.445E+03  6.508E-30  9.400E-19
5.395E+03  6.752E-30  9.663E-19
5.346E+03  7.006E-30  9.934E-19
5.297E+03  7.268E-30  1.021E-18
5.248E+03  7.541E-30  1.050E-18
5.200E+03  7.825E-30  1.079E-18
5.152E+03  8.119E-30  1.110E-18
5.105E+03  8.424E-30  1.141E-18
5.058E+03  8.741E-30  1.173E-18
5.012E+03  9.071E-30  1.206E-18
4.966E+03  9.412E-30  1.240E-18
4.920E+03  9.767E-30  1.275E-18
4.875E+03  1.013E-29  1.311E-18
4.831E+03  1.052E-29  1.348E-18
4.786E+03  1.091E-29  1.386E-18
4.742E+03  1.133E-29  1.425E-18
4.699E+03  1.175E-29  1.465E-18
4.656E+03  1.220E-29  1.507E-18
4.613E+03  1.266E-29  1.549E-18
4.571E+03  1.314E-29  1.593E-18
4.529E+03  1.364E-29  1.638E-18
4.487E+03  1.415E-29  1.685E-18
4.446E+03  1.469E-29  1.733E-18
4.406E+03  1.525E-29  1.782E-18
4.365E+03  1.583E-29  1.833E-18
4.325E+03  1.643E-29  1.885E-18
4.285E+03  1.706E-29  1.939E-18
4.246E+03  1.770E-29  1.994E-18
4.207E+03  1.838E-29  2.051E-18
4.169E+03  1.908E-29  2.110E-18
4.130E+03  1.981E-29  2.170E-18
4.093E+03  2.056E-29  2.232E-18
4.055E+03  2.135E-29  2.296E-18
4.018E+03  2.216E-29  2.362E-18
3.981E+03  2.301E-29  2.430E-18
3.945E+03  2.389E-29  2.499E-18
3.908E+03  2.480E-29  2.571E-18
3.873E+03  2.575E-29  2.645E-18
3.837E+03  2.673E-29  2.721E-18
3.802E+03  2.776E-29  2.799E-18
3.767E+03  2.882E-29  2.880E-18
3.733E+03  2.992E-29  2.963E-18
3.698E+03  3.107E-29  3.048E-18
3.664E+03  3.226E-29  3.136E-18
3.631E+03  3.350E-29  3.227E-18
3.597E+03  3.479E-29  3.320E-18
3.565E+03  3.613E-29  3.416E-18
3.532E+03  3.752E-29  3.515E-18
3.499E+03  3.897E-29  3.617E-18
3.467E+03  4.047E-29  3.722E-18
3.436E+03  4.203E-29  3.830E-18
3.404E+03  4.366E-29  3.942E-18
3.373E+03  4.534E-29  4.057E-18
3.342E+03  4.709E-29  4.175E-18
3.311E+03  4.892E-29  4.297E-18
3.281E+03  5.081E-29  4.422E-18
3.251E+03  5.278E-29  4.551E-18
3.221E+03  5.482E-29  4.684E-18
3.192E+03  5.695E-29  4.821E-18
3.162E+03  5.916E-29  4.962E-18
3.133E+03  6.146E-29  5.108E-18
3.105E+03  6.385E-29  5.258E-18
3.076E+03  6.633E-29  5.412E-18
3.048E+03  6.891E-29  5.571E-18
3.020E+03  7.159E-29  5.735E-18
2.992E+03  7.438E-29  5.903E-18
2.965E+03  7.726E-29  6.076E-18
2.938E+03  8.027E-29  6.255E-18
2.911E+03  8.339E-29  6.438E-18
2.884E+03  8.664E-29  6.628E-18
2.858E+03  9.001E-29  6.823E-18
2.831E+03  9.352E-29  7.024E-18
2.805E+03  9.716E-29  7.231E-18
2.780E+03  1.010E-28  7.444E-18
2.754E+03  1.049E-28  7.664E-18
2.729E+03  1.090E-28  7.890E-18
2.704E+03  1.133E-28  8.124E-18
2.679E+03  1.177E-28  8.364E-18
2.655E+03  1.223E-28  8.612E-18
2.630E+03  1.271E-28  8.867E-18
2.606E+03  1.321E-28  9.130E-18
2.582E+03  1.373E-28  9.401E-18
2.559E+03  1.426E-28  9.681E-18
2.535E+03  1.482E-28  9.968E-18
2.512E+03  1.541E-28  1.027E-17
2.489E+03  1.601E-28  1.057E-17
2.466E+03  1.664E-28  1.089E-17
2.443E+03  1.730E-28  1.121E-17
2.421E+03  1.798E-28  1.154E-17
2.399E+03  1.869E-28  1.189E-17
2.377E+03  1.942E-28  1.224E-17
2.355E+03  2.019E-28  1.261E-17
2.333E+03  2.098E-28  1.299E-17
2.312E+03  2.181E-28  1.338E-17
2.291E+03  2.267E-28  1.378E-17
2.270E+03  2.357E-28  1.419E-17
2.249E+03  2.450E-28  1.462E-17
2.228E+03  2.547E-28  1.505E-17
2.208E+03  2.648E-28  1.551E-17
2.188E+03  2.752E-28  1.597E-17
2.168E+03  2.861E-28  1.645E-17
2.148E+03  2.975E-28  1.695E-17
2.128E+03  3.092E-28  1.746E-17
2.109E+03  3.215E-28  1.798E-17
2.089E+03  3.342E-28  1.852E-17
2.070E+03  3.475E-28  1.908E-17
2.051E+03  3.613E-28  1.966E-17
2.032E+03  3.756E-28  2.025E-17
2.014E+03  3.905E-28  2.086E-17
1.995E+03  4.060E-28  2.149E-17
1.977E+03  4.221E-28  2.214E-17
1.959E+03  4.389E-28  2.281E-17
1.941E+03  4.563E-28  2.349E-17
1.923E+03  4.745E-28  2.420E-17
1.905E+03  4.933E-28  2.493E-17
1.888E+03  5.129E-28  2.569E-17
1.871E+03  5.333E-28  2.646E-17
1.854E+03  5.545E-28  2.726E-17
1.837E+03  5.766E-28  2.809E-17
1.820E+03  5.995E-28  2.894E-17
1.803E+03  6.234E-28  2.982E-17
1.786E+03  6.482E-28  3.072E-17
1.770E+03  6.740E-28  3.165E-17
1.754E+03  7.009E-28  3.261E-17
1.738E+03  7.288E-28  3.359E-17
1.722E+03  7.578E-28  3.461E-17
1.706E+03  7.880E-28  3.566E-17
1.690E+03  8.194E-28  3.674E-17
1.675E+03  8.521E-28  3.786E-17
1.660E+03  8.860E-28  3.900E-17
1.644E+03  9.213E-28  4.019E-17
1.629E+03  9.581E-28  4.141E-17
1.614E+03  9.963E-28  4.266E-17
1.600E+03  1.036E-27  4.396E-17
1.585E+03  1.077E-27  4.529E-17
1.570E+03  1.120E-27  4.666E-17
1.556E+03  1.165E-27  4.808E-17
1.542E+03  1.211E-27  4.954E-17
1.528E+03  1.260E-27  5.104E-17
1.514E+03  1.310E-27  5.259E-17
1.500E+03  1.362E-27  5.418E-17
1.486E+03  1.416E-27  5.582E-17
1.472E+03  1.473E-27  5.752E-17
1.459E+03  1.532E-27  5.926E-17
1.445E+03  1.593E-27  6.106E-17
1.432E+03  1.656E-27  6.292E-17
1.419E+03  1.722E-27  6.483E-17
1.406E+03  1.791E-27  6.679E-17
1.393E+03  1.862E-27  6.882E-17
1.380E+03  1.936E-27  7.091E-17
1.368E+03  2.014E-27  7.306E-17
1.355E+03  2.094E-27  7.527E-17
1.343E+03  2.177E-27  7.755E-17
1.330E+03  2.264E-27  7.990E-17
1.318E+03  2.354E-27  8.233E-17
1.306E+03  2.448E-27  8.482E-17
1.294E+03  2.546E-27  8.739E-17
1.282E+03  2.647E-27  9.003E-17
1.271E+03  2.752E-27  9.276E-17
1.259E+03  2.862E-27  9.556E-17
1.247E+03  2.975E-27  9.845E-17
1.236E+03  3.094E-27  1.014E-16
1.225E+03  3.217E-27  1.045E-16
1.213E+03  3.344E-27  1.076E-16
1.202E+03  3.477E-27  1.109E-16
1.191E+03  3.615E-27  1.142E-16
1.180E+03  3.759E-27  1.177E-16
1.169E+03  3.908E-27  1.212E-16
1.159E+03  4.063E-27  1.249E-16
1.148E+03  4.224E-27  1.286E-16
1.138E+03  4.391E-27  1.325E-16
1.127E+03  4.565E-27  1.365E-16
1.117E+03  4.746E-27  1.406E-16
1.107E+03  4.933E-27  1.448E-16
1.096E+03  5.128E-27  1.492E-16
1.086E+03  5.331E-27  1.536E-16
1.076E+03  5.541E-27  1.582E-16
1.067E+03  5.760E-27  1.630E-16
1.057E+03  5.987E-27  1.678E-16
1.047E+03  6.223E-27  1.729E-16
1.038E+03  6.468E-27  1.780E-16
1.028E+03  6.723E-27  1.833E-16
1.019E+03  6.987E-27  1.888E-16
1.009E+03  7.262E-27  1.944E-16
1.000E+03  7.547E-27  2.002E-16
9.908E+02  7.844E-27  2.062E-16
9.817E+02  8.152E-27  2.123E-16
9.727E+02  8.472E-27  2.186E-16
9.638E+02  8.804E-27  2.251E-16
9.550E+02  9.150E-27  2.318E-16
9.462E+02  9.508E-27  2.387E-16
9.376E+02  9.880E-27  2.457E-16
9.290E+02  1.027E-26  2.530E-16
9.204E+02  1.067E-26  2.605E-16
9.120E+02  1.108E-26  2.682E-16
9.036E+02  1.152E-26  2.761E-16
8.954E+02  1.197E-26  2.842E-16
8.872E+02  1.243E-26  2.925E-16
8.790E+02  1.291E-26  3.011E-16
8.710E+02  1.342E-26  3.100E-16
8.630E+02  1.394E-26  3.190E-16
8.551E+02  1.448E-26  3.283E-16
8.472E+02  1.504E-26  3.379E-16
8.395E+02  1.562E-26  3.478E-16
8.318E+02  1.622E-26  3.579E-16
8.241E+02  1.685E-26  3.683E-16
8.166E+02  1.750E-26  3.790E-16
8.091E+02  1.817E-26  3.899E-16
8.017E+02  1.887E-26  4.012E-16
7.943E+02  1.959E-26  4.128E-16
7.870E+02  2.034E-26  4.247E-16
7.798E+02  2.112E-26  4.369E-16
7.727E+02  2.193E-26  4.495E-16
7.656E+02  2.277E-26  4.624E-16
7.586E+02  2.364E-26  4.756E-16
7.516E+02  2.454E-26  4.892E-16
7.447E+02  2.548E-26  5.033E-16
7.379E+02  2.645E-26  5.177E-16
7.311E+02  2.746E-26  5.325E-16
7.244E+02  2.850E-26  5.477E-16
7.178E+02  2.959E-26  5.634E-16
7.112E+02  3.071E-26  5.794E-16
7.047E+02  3.188E-26  5.960E-16
6.982E+02  3.309E-26  6.129E-16
6.918E+02  3.435E-26  6.304E-16
6.855E+02  3.565E-26  6.483E-16
6.792E+02  3.701E-26  6.667E-16
6.730E+02  3.840E-26  6.856E-16
6.668E+02  3.985E-26  7.049E-16
6.607E+02  4.136E-26  7.248E-16
6.546E+02  4.292E-26  7.453E-16
6.486E+02  4.455E-26  7.664E-16
6.427E+02  4.623E-26  7.881E-16
6.368E+02  4.798E-26  8.104E-16
6.310E+02  4.979E-26  8.333E-16
6.252E+02  5.167E-26  8.569E-16
6.194E+02  5.362E-26  8.811E-16
6.138E+02  5.564E-26  9.059E-16
6.081E+02  5.774E-26  9.314E-16
6.026E+02  5.991E-26  9.576E-16
5.970E+02  6.217E-26  9.846E-16
5.916E+02  6.451E-26  1.012E-15
5.861E+02  6.693E-26  1.041E-15
5.808E+02  6.944E-26  1.070E-15
5.754E+02  7.205E-26  1.100E-15
5.702E+02  7.475E-26  1.131E-15
5.649E+02  7.755E-26  1.162E-15
5.598E+02  8.045E-26  1.195E-15
5.546E+02  8.346E-26  1.228E-15
5.495E+02  8.659E-26  1.262E-15
5.445E+02  8.982E-26  1.297E-15
5.395E+02  9.317E-26  1.333E-15
5.346E+02  9.665E-26  1.370E-15
5.297E+02  1.002E-25  1.408E-15
5.248E+02  1.040E-25  1.448E-15
5.200E+02  1.078E-25  1.488E-15
5.152E+02  1.119E-25  1.529E-15
5.105E+02  1.160E-25  1.571E-15
5.058E+02  1.203E-25  1.614E-15
5.012E+02  1.248E-25  1.659E-15
4.966E+02  1.294E-25  1.704E-15
4.920E+02  1.342E-25  1.751E-15
4.875E+02  1.391E-25  1.799E-15
4.831E+02  1.442E-25  1.848E-15
4.786E+02  1.496E-25  1.899E-15
4.742E+02  1.551E-25  1.951E-15
4.699E+02  1.608E-25  2.004E-15
4.656E+02  1.667E-25  2.058E-15
4.613E+02  1.728E-25  2.114E-15
4.571E+02  1.791E-25  2.171E-15
4.529E+02  1.856E-25  2.230E-15
4.487E+02  1.924E-25  2.290E-15
4.446E+02  1.994E-25  2.352E-15
4.406E+02  2.067E-25  2.415E-15
4.365E+02  2.142E-25  2.480E-15
4.325E+02  2.219E-25  2.546E-15
4.285E+02  2.300E-25  2.614E-15
4.246E+02  2.383E-25  2.684E-15
4.207E+02  2.469E-25  2.756E-15
4.169E+02  2.558E-25  2.829E-15
4.130E+02  2.650E-25  2.904E-15
4.093E+02  2.746E-25  2.981E-15
4.055E+02  2.844E-25  3.059E-15
4.018E+02  2.946E-25  3.140E-15
3.981E+02  3.051E-25  3.222E-15
3.945E+02  3.160E-25  3.307E-15
3.908E+02  3.273E-25  3.393E-15
3.873E+02  3.390E-25  3.482E-15
3.837E+02  3.510E-25  3.573E-15
3.802E+02  3.635E-25  3.666E-15
3.767E+02  3.763E-25  3.761E-15
3.733E+02  3.896E-25  3.858E-15
3.698E+02  4.034E-25  3.957E-15
3.664E+02  4.176E-25  4.059E-15
3.631E+02  4.322E-25  4.163E-15
3.597E+02  4.474E-25  4.269E-15
3.565E+02  4.630E-25  4.378E-15
3.532E+02  4.792E-25  4.489E-15
3.499E+02  4.959E-25  4.603E-15
3.467E+02  5.131E-25  4.719E-15
3.436E+02  5.309E-25  4.838E-15
3.404E+02  5.492E-25  4.959E-15
3.373E+02  5.681E-25  5.083E-15
3.342E+02  5.877E-25  5.210E-15
3.311E+02  6.078E-25  5.339E-15
3.281E+02  6.286E-25  5.471E-15
3.251E+02  6.501E-25  5.606E-15
3.221E+02  6.722E-25  5.743E-15
3.192E+02  6.950E-25  5.884E-15
3.162E+02  7.185E-25  6.027E-15
3.133E+02  7.427E-25  6.173E-15
3.105E+02  7.677E-25  6.322E-15
3.076E+02  7.934E-25  6.474E-15
3.048E+02  8.200E-25  6.629E-15
3.020E+02  8.473E-25  6.787E-15
2.992E+02  8.754E-25  6.948E-15
2.965E+02  9.044E-25  7.113E-15
2.938E+02  9.342E-25  7.280E-15
2.911E+02  9.650E-25  7.450E-15
2.884E+02  9.966E-25  7.624E-15
2.858E+02  1.029E-24  7.801E-15
2.831E+02  1.063E-24  7.981E-15
2.805E+02  1.097E-24  8.164E-15
2.780E+02  1.133E-24  8.351E-15
2.754E+02  1.169E-24  8.541E-15
2.729E+02  1.207E-24  8.735E-15
2.704E+02  1.245E-24  8.933E-15
2.679E+02  1.285E-24  9.134E-15
2.655E+02  1.326E-24  9.338E-15
2.630E+02  1.368E-24  9.546E-15
2.606E+02  1.412E-24  9.758E-15
2.582E+02  1.456E-24  9.973E-15
2.559E+02  1.502E-24  1.019E-14
2.535E+02  1.548E-24  1.041E-14
2.512E+02  1.595E-24  1.063E-14
2.489E+02  1.643E-24  1.085E-14
2.466E+02  1.692E-24  1.107E-14
2.443E+02  1.741E-24  1.128E-14
2.421E+02  1.791E-24  1.150E-14
2.399E+02  1.842E-24  1.172E-14
2.377E+02  1.893E-24  1.193E-14
2.355E+02  1.945E-24  1.215E-14
2.333E+02  1.998E-24  1.237E-14
2.312E+02  2.052E-24  1.259E-14
2.291E+02  2.108E-24  1.281E-14
2.270E+02  2.165E-24  1.303E-14
2.249E+02  2.222E-24  1.326E-14
2.228E+02  2.281E-24  1.349E-14
2.208E+02  2.342E-24  1.371E-14
2.188E+02  2.403E-24  1.394E-14
2.168E+02  2.466E-24  1.418E-14
2.148E+02  2.529E-24  1.441E-14
2.128E+02  2.594E-24  1.465E-14
2.109E+02  2.661E-24  1.488E-14
2.089E+02  2.728E-24  1.512E-14
2.070E+02  2.797E-24  1.536E-14
2.051E+02  2.866E-24  1.559E-14
2.032E+02  2.937E-24  1.583E-14
2.014E+02  3.010E-24  1.608E-14
1.995E+02  3.083E-24  1.632E-14
1.977E+02  3.158E-24  1.656E-14
1.959E+02  3.234E-24  1.680E-14
1.941E+02  3.311E-24  1.705E-14
1.923E+02  3.390E-24  1.729E-14
1.905E+02  3.470E-24  1.754E-14
1.888E+02  3.551E-24  1.778E-14
1.871E+02  3.633E-24  1.803E-14
1.854E+02  3.717E-24  1.828E-14
1.837E+02  3.802E-24  1.852E-14
1.820E+02  3.889E-24  1.877E-14
1.803E+02  3.977E-24  1.902E-14
1.786E+02  4.066E-24  1.927E-14
1.770E+02  4.157E-24  1.952E-14
1.754E+02  4.249E-24  1.977E-14
1.738E+02  4.343E-24  2.002E-14
1.722E+02  4.438E-24  2.027E-14
1.706E+02  4.535E-24  2.052E-14
1.690E+02  4.633E-24  2.078E-14
1.675E+02  4.734E-24  2.103E-14
1.660E+02  4.836E-24  2.129E-14
1.644E+02  4.940E-24  2.155E-14
1.629E+02  5.045E-24  2.181E-14
1.614E+02  5.153E-24  2.207E-14
1.600E+02  5.263E-24  2.233E-14
1.585E+02  5.375E-24  2.260E-14
1.570E+02  5.490E-24  2.287E-14
1.556E+02  5.607E-24  2.314E-14
1.542E+02  5.727E-24  2.342E-14
1.528E+02  5.850E-24  2.370E-14
1.514E+02  5.975E-24  2.399E-14
1.500E+02  6.103E-24  2.428E-14
1.486E+02  6.233E-24  2.457E-14
1.472E+02  6.365E-24  2.486E-14
1.459E+02  6.497E-24  2.514E-14
1.445E+02  6.629E-24  2.542E-14
1.432E+02  6.759E-24  2.568E-14
1.419E+02  6.882E-24  2.591E-14
1.406E+02  6.999E-24  2.610E-14
1.393E+02  7.106E-24  2.626E-14
1.380E+02  7.203E-24  2.637E-14
1.368E+02  7.289E-24  2.644E-14
1.355E+02  7.365E-24  2.648E-14
1.343E+02  7.435E-24  2.648E-14
1.330E+02  7.502E-24  2.647E-14
1.318E+02  7.566E-24  2.646E-14
1.306E+02  7.630E-24  2.644E-14
1.294E+02  7.695E-24  2.642E-14
1.282E+02  7.761E-24  2.640E-14
1.271E+02  7.828E-24  2.638E-14
1.259E+02  7.897E-24  2.637E-14
1.247E+02  7.968E-24  2.637E-14
1.236E+02  8.042E-24  2.636E-14
1.225E+02  8.116E-24  2.636E-14
1.213E+02  8.193E-24  2.637E-14
1.202E+02  8.271E-24  2.638E-14
1.191E+02  8.349E-24  2.638E-14
1.180E+02  8.429E-24  2.639E-14
1.169E+02  8.509E-24  2.640E-14
1.159E+02  8.588E-24  2.640E-14
1.148E+02  8.669E-24  2.640E-14
1.138E+02  8.750E-24  2.640E-14
1.127E+02  8.831E-24  2.640E-14
1.117E+02  8.913E-24  2.641E-14
1.107E+02  8.996E-24  2.641E-14
1.096E+02  9.079E-24  2.641E-14
1.086E+02  9.161E-24  2.640E-14
1.076E+02  9.243E-24  2.639E-14
1.067E+02  9.325E-24  2.638E-14
1.057E+02  9.407E-24  2.637E-14
1.047E+02  9.488E-24  2.636E-14
1.038E+02  9.569E-24  2.634E-14
1.028E+02  9.648E-24  2.631E-14
1.019E+02  9.726E-24  2.628E-14
1.009E+02  9.803E-24  2.624E-14
1.000E+02  9.880E-24  2.621E-14
9.908E+01  9.953E-24  2.616E-14
9.817E+01  1.003E-23  2.611E-14
9.727E+01  1.010E-23  2.606E-14
9.638E+01  1.017E-23  2.600E-14
9.550E+01  1.024E-23  2.594E-14
9.462E+01  1.031E-23  2.588E-14
9.376E+01  1.038E-23  2.581E-14
9.290E+01  1.044E-23  2.573E-14
9.204E+01  1.051E-23  2.565E-14
9.120E+01  1.057E-23  2.556E-14
9.036E+01  1.063E-23  2.548E-14
8.954E+01  1.069E-23  2.538E-14
8.872E+01  1.074E-23  2.529E-14
8.790E+01  1.080E-23  2.518E-14
8.710E+01  1.086E-23  2.508E-14
8.630E+01  1.091E-23  2.497E-14
8.551E+01  1.096E-23  2.486E-14
8.472E+01  1.101E-23  2.474E-14
8.395E+01  1.106E-23  2.462E-14
8.318E+01  1.110E-23  2.449E-14
8.241E+01  1.115E-23  2.437E-14
8.166E+01  1.119E-23  2.424E-14
8.091E+01  1.123E-23  2.410E-14
8.017E+01  1.127E-23  2.397E-14
7.943E+01  1.131E-23  2.383E-14
7.870E+01  1.134E-23  2.368E-14
7.798E+01  1.138E-23  2.354E-14
7.727E+01  1.141E-23  2.338E-14
7.656E+01  1.144E-23  2.323E-14
7.586E+01  1.147E-23  2.307E-14
7.516E+01  1.149E-23  2.291E-14
7.447E+01  1.152E-23  2.275E-14
7.379E+01  1.154E-23  2.258E-14
7.311E+01  1.156E-23  2.241E-14
7.244E+01  1.157E-23  2.224E-14
7.178E+01  1.159E-23  2.206E-14
7.112E+01  1.160E-23  2.188E-14
7.047E+01  1.161E-23  2.171E-14
6.982E+01  1.162E-23  2.153E-14
6.918E+01  1.163E-23  2.135E-14
6.855E+01  1.164E-23  2.116E-14
6.792E+01  1.164E-23  2.098E-14
6.730E+01  1.165E-23  2.079E-14
6.668E+01  1.165E-23  2.060E-14
6.607E+01  1.165E-23  2.041E-14
6.546E+01  1.164E-23  2.022E-14
6.486E+01  1.164E-23  2.002E-14
6.427E+01  1.163E-23  1.983E-14
6.368E+01  1.162E-23  1.963E-14
6.310E+01  1.161E-23  1.944E-14
6.252E+01  1.160E-23  1.924E-14
6.194E+01  1.159E-23  1.905E-14
6.138E+01  1.158E-23  1.885E-14
6.081E+01  1.156E-23  1.865E-14
6.026E+01  1.155E-23  1.845E-14
5.970E+01  1.153E-23  1.826E-14
5.916E+01  1.151E-23  1.806E-14
5.861E+01  1.148E-23  1.786E-14
5.808E+01  1.146E-23  1.766E-14
5.754E+01  1.144E-23  1.746E-14
5.702E+01  1.141E-23  1.726E-14
5.649E+01  1.138E-23  1.706E-14
5.598E+01  1.136E-23  1.686E-14
5.546E+01  1.133E-23  1.666E-14
5.495E+01  1.130E-23  1.647E-14
5.445E+01  1.127E-23  1.627E-14
5.395E+01  1.123E-23  1.608E-14
5.346E+01  1.120E-23  1.588E-14
5.297E+01  1.117E-23  1.569E-14
5.248E+01  1.113E-23  1.550E-14
5.200E+01  1.109E-23  1.530E-14
5.152E+01  1.106E-23  1.511E-14
5.105E+01  1.102E-23  1.492E-14
5.058E+01  1.098E-23  1.473E-14
5.012E+01  1.094E-23  1.454E-14
4.966E+01  1.090E-23  1.435E-14
