Dust emission from Draine & Li (2007): ApJ 657, 810-837
==========================================================
         4 = grain model
 4.000E-08 4.000E-01 2.250E-05 = a_01 (cm) , sigma_1 , b_C1/0.92
 2.000E-07 5.500E-01 7.500E-06 = a_02 (cm) , sigma_2 , b_C2/0.92
 2.000E-01 1.000E+06 2.000E+00 = Umin , Umax, beta (dN/dU propto U^{-beta})
 3.085E+00 = <U> 
     mmp83 = radfield
 1.371E-23 = power/H (erg s-1)
 band   nu*P_nu(band) j_nu(band)
 (um)   (erg s-1 H-1)(Jy cm2 sr-1 H-1)
1.270E+00  2.969E-26  1.000E-18 COBE-DIRBE
2.220E+00  3.913E-26  2.305E-18 COBE-DIRBE
3.530E+00  2.774E-25  2.597E-17 COBE-DIRBE
4.880E+00  1.961E-25  2.539E-17 COBE-DIRBE
1.229E+01  2.006E-24  6.541E-16 COBE-DIRBE
2.079E+01  3.329E-24  1.836E-15 COBE-DIRBE
5.599E+01  5.201E-24  7.725E-15 COBE-DIRBE
9.770E+01  3.839E-24  9.948E-15 COBE-DIRBE
1.479E+02  2.734E-24  1.072E-14 COBE-DIRBE
2.479E+02  1.002E-24  6.588E-15 COBE-DIRBE
1.200E+01  2.015E-24  6.414E-16 IRAS
2.500E+01  4.042E-24  2.680E-15 IRAS
6.000E+01  5.074E-24  8.075E-15 IRAS
1.000E+02  3.780E-24  1.003E-14 IRAS
3.550E+00  3.210E-25  3.023E-17 SST-IRAC
4.493E+00  1.369E-25  1.632E-17 SST-IRAC
5.731E+00  9.157E-25  1.392E-16 SST-IRAC
7.872E+00  2.373E-24  4.954E-16 SST-IRAC
2.368E+01  3.801E-24  2.388E-15 SST-MIPS
7.142E+01  4.125E-24  7.816E-15 SST-MIPS
1.559E+02  2.427E-24  1.004E-14 SST-MIPS
1.600E+01  2.276E-24  9.658E-16 SST-IRSPU
2.200E+01  3.736E-24  2.180E-15 SST-IRSPU
7.500E+01  3.553E-24  7.069E-15 Herschel-PACS
1.100E+02  2.731E-24  7.969E-15 Herschel-PACS
1.700E+02  1.856E-24  8.368E-15 Herschel-PACS
2.500E+02  8.701E-25  5.770E-15 Herschel-SPIRE
3.600E+02  2.861E-25  2.732E-15 Herschel-SPIRE
5.200E+02  7.831E-26  1.080E-15 Herschel-SPIRE
2.400E+00  4.519E-26  2.877E-18 Akari IRC NIR N2
3.200E+00  2.109E-25  1.790E-17 Akari IRC NIR N3
4.100E+00  1.409E-25  1.532E-17 Akari IRC NIR N4
7.000E+00  2.555E-24  4.744E-16 Akari IRC MIR-S S7
9.000E+00  2.087E-24  4.981E-16 Akari IRC MIR-S S9W
1.100E+01  1.874E-24  5.469E-16 Akari IRC MIR-S S11
1.500E+01  2.403E-24  9.560E-16 Akari IRC MIR-L L15
1.800E+01  2.998E-24  1.431E-15 Akari IRC MIR-L L18W
2.400E+01  3.745E-24  2.384E-15 Akari IRC MIR-L L24
6.500E+01  4.674E-24  8.058E-15 Akari FIS N60
8.000E+01  4.121E-24  8.744E-15 Akari FIS WIDE-S
1.400E+02  2.739E-24  1.017E-14 Akari FIS WIDE-L
1.600E+02  2.366E-24  1.004E-14 Akari FIS N160
 
 
 
 


lambda    nu*dP/dnu     j_nu
 (um)   (erg s-1 H-1)(Jy cm2 sr-1 H-1)
1.000E+04  4.942E-31  1.311E-19
9.908E+03  5.122E-31  1.346E-19
9.817E+03  5.309E-31  1.383E-19
9.727E+03  5.503E-31  1.420E-19
9.638E+03  5.704E-31  1.458E-19
9.550E+03  5.912E-31  1.498E-19
9.462E+03  6.128E-31  1.538E-19
9.376E+03  6.351E-31  1.580E-19
9.290E+03  6.583E-31  1.622E-19
9.204E+03  6.823E-31  1.666E-19
9.120E+03  7.072E-31  1.711E-19
9.036E+03  7.331E-31  1.757E-19
8.954E+03  7.597E-31  1.804E-19
8.872E+03  7.873E-31  1.853E-19
8.790E+03  8.159E-31  1.902E-19
8.710E+03  8.455E-31  1.953E-19
8.630E+03  8.763E-31  2.006E-19
8.551E+03  9.082E-31  2.060E-19
8.472E+03  9.412E-31  2.115E-19
8.395E+03  9.755E-31  2.172E-19
8.318E+03  1.011E-30  2.231E-19
8.241E+03  1.048E-30  2.291E-19
8.166E+03  1.086E-30  2.353E-19
8.091E+03  1.126E-30  2.416E-19
8.017E+03  1.167E-30  2.482E-19
7.943E+03  1.210E-30  2.549E-19
7.870E+03  1.254E-30  2.618E-19
7.798E+03  1.300E-30  2.689E-19
7.727E+03  1.347E-30  2.762E-19
7.656E+03  1.397E-30  2.836E-19
7.586E+03  1.448E-30  2.914E-19
7.516E+03  1.501E-30  2.993E-19
7.447E+03  1.556E-30  3.074E-19
7.379E+03  1.613E-30  3.158E-19
7.311E+03  1.673E-30  3.244E-19
7.244E+03  1.734E-30  3.332E-19
7.178E+03  1.798E-30  3.423E-19
7.112E+03  1.864E-30  3.516E-19
7.047E+03  1.933E-30  3.612E-19
6.982E+03  2.004E-30  3.711E-19
6.918E+03  2.077E-30  3.812E-19
6.855E+03  2.154E-30  3.916E-19
6.792E+03  2.233E-30  4.023E-19
6.730E+03  2.316E-30  4.133E-19
6.668E+03  2.401E-30  4.247E-19
6.607E+03  2.489E-30  4.363E-19
6.546E+03  2.581E-30  4.483E-19
6.486E+03  2.677E-30  4.606E-19
6.427E+03  2.776E-30  4.732E-19
6.368E+03  2.878E-30  4.862E-19
6.310E+03  2.985E-30  4.996E-19
6.252E+03  3.095E-30  5.133E-19
6.194E+03  3.210E-30  5.275E-19
6.138E+03  3.329E-30  5.420E-19
6.081E+03  3.453E-30  5.570E-19
6.026E+03  3.581E-30  5.723E-19
5.970E+03  3.714E-30  5.882E-19
5.916E+03  3.852E-30  6.044E-19
5.861E+03  3.995E-30  6.212E-19
5.808E+03  4.144E-30  6.384E-19
5.754E+03  4.298E-30  6.561E-19
5.702E+03  4.458E-30  6.743E-19
5.649E+03  4.624E-30  6.930E-19
5.598E+03  4.797E-30  7.122E-19
5.546E+03  4.976E-30  7.320E-19
5.495E+03  5.161E-30  7.524E-19
5.445E+03  5.354E-30  7.733E-19
5.395E+03  5.554E-30  7.949E-19
5.346E+03  5.762E-30  8.170E-19
5.297E+03  5.977E-30  8.398E-19
5.248E+03  6.201E-30  8.633E-19
5.200E+03  6.433E-30  8.874E-19
5.152E+03  6.674E-30  9.122E-19
5.105E+03  6.924E-30  9.377E-19
5.058E+03  7.184E-30  9.639E-19
5.012E+03  7.454E-30  9.909E-19
4.966E+03  7.733E-30  1.019E-18
4.920E+03  8.023E-30  1.047E-18
4.875E+03  8.325E-30  1.077E-18
4.831E+03  8.638E-30  1.107E-18
4.786E+03  8.962E-30  1.138E-18
4.742E+03  9.299E-30  1.170E-18
4.699E+03  9.649E-30  1.203E-18
4.656E+03  1.001E-29  1.237E-18
4.613E+03  1.039E-29  1.271E-18
4.571E+03  1.078E-29  1.307E-18
4.529E+03  1.119E-29  1.344E-18
4.487E+03  1.161E-29  1.382E-18
4.446E+03  1.205E-29  1.421E-18
4.406E+03  1.251E-29  1.461E-18
4.365E+03  1.298E-29  1.503E-18
4.325E+03  1.347E-29  1.545E-18
4.285E+03  1.398E-29  1.589E-18
4.246E+03  1.451E-29  1.634E-18
4.207E+03  1.506E-29  1.681E-18
4.169E+03  1.563E-29  1.728E-18
4.130E+03  1.622E-29  1.778E-18
4.093E+03  1.684E-29  1.828E-18
4.055E+03  1.748E-29  1.880E-18
4.018E+03  1.814E-29  1.934E-18
3.981E+03  1.883E-29  1.989E-18
3.945E+03  1.955E-29  2.045E-18
3.908E+03  2.029E-29  2.104E-18
3.873E+03  2.106E-29  2.164E-18
3.837E+03  2.186E-29  2.225E-18
3.802E+03  2.270E-29  2.289E-18
3.767E+03  2.356E-29  2.354E-18
3.733E+03  2.446E-29  2.422E-18
3.698E+03  2.539E-29  2.491E-18
3.664E+03  2.636E-29  2.562E-18
3.631E+03  2.737E-29  2.636E-18
3.597E+03  2.842E-29  2.712E-18
3.565E+03  2.950E-29  2.790E-18
3.532E+03  3.063E-29  2.870E-18
3.499E+03  3.181E-29  2.952E-18
3.467E+03  3.303E-29  3.038E-18
3.436E+03  3.429E-29  3.125E-18
3.404E+03  3.561E-29  3.215E-18
3.373E+03  3.698E-29  3.308E-18
3.342E+03  3.840E-29  3.404E-18
3.311E+03  3.987E-29  3.502E-18
3.281E+03  4.141E-29  3.603E-18
3.251E+03  4.300E-29  3.708E-18
3.221E+03  4.465E-29  3.815E-18
3.192E+03  4.637E-29  3.926E-18
3.162E+03  4.816E-29  4.040E-18
3.133E+03  5.002E-29  4.157E-18
3.105E+03  5.195E-29  4.278E-18
3.076E+03  5.396E-29  4.403E-18
3.048E+03  5.604E-29  4.531E-18
3.020E+03  5.821E-29  4.663E-18
2.992E+03  6.046E-29  4.798E-18
2.965E+03  6.279E-29  4.938E-18
2.938E+03  6.521E-29  5.081E-18
2.911E+03  6.773E-29  5.229E-18
2.884E+03  7.034E-29  5.381E-18
2.858E+03  7.306E-29  5.538E-18
2.831E+03  7.589E-29  5.700E-18
2.805E+03  7.883E-29  5.866E-18
2.780E+03  8.188E-29  6.037E-18
2.754E+03  8.505E-29  6.214E-18
2.729E+03  8.835E-29  6.395E-18
2.704E+03  9.178E-29  6.583E-18
2.679E+03  9.534E-29  6.775E-18
2.655E+03  9.904E-29  6.974E-18
2.630E+03  1.029E-28  7.178E-18
2.606E+03  1.069E-28  7.389E-18
2.582E+03  1.110E-28  7.606E-18
2.559E+03  1.154E-28  7.830E-18
2.535E+03  1.199E-28  8.060E-18
2.512E+03  1.245E-28  8.297E-18
2.489E+03  1.294E-28  8.541E-18
2.466E+03  1.344E-28  8.793E-18
2.443E+03  1.397E-28  9.052E-18
2.421E+03  1.451E-28  9.319E-18
2.399E+03  1.508E-28  9.594E-18
2.377E+03  1.567E-28  9.877E-18
2.355E+03  1.628E-28  1.017E-17
2.333E+03  1.691E-28  1.047E-17
2.312E+03  1.758E-28  1.078E-17
2.291E+03  1.826E-28  1.110E-17
2.270E+03  1.898E-28  1.143E-17
2.249E+03  1.972E-28  1.176E-17
2.228E+03  2.049E-28  1.211E-17
2.208E+03  2.129E-28  1.247E-17
2.188E+03  2.213E-28  1.284E-17
2.168E+03  2.300E-28  1.322E-17
2.148E+03  2.390E-28  1.361E-17
2.128E+03  2.483E-28  1.402E-17
2.109E+03  2.581E-28  1.443E-17
2.089E+03  2.682E-28  1.486E-17
2.070E+03  2.787E-28  1.530E-17
2.051E+03  2.897E-28  1.576E-17
2.032E+03  3.010E-28  1.623E-17
2.014E+03  3.128E-28  1.671E-17
1.995E+03  3.251E-28  1.721E-17
1.977E+03  3.379E-28  1.772E-17
1.959E+03  3.511E-28  1.825E-17
1.941E+03  3.649E-28  1.879E-17
1.923E+03  3.793E-28  1.935E-17
1.905E+03  3.942E-28  1.992E-17
1.888E+03  4.096E-28  2.051E-17
1.871E+03  4.257E-28  2.113E-17
1.854E+03  4.425E-28  2.175E-17
1.837E+03  4.599E-28  2.240E-17
1.820E+03  4.779E-28  2.307E-17
1.803E+03  4.967E-28  2.376E-17
1.786E+03  5.162E-28  2.446E-17
1.770E+03  5.365E-28  2.519E-17
1.754E+03  5.576E-28  2.594E-17
1.738E+03  5.796E-28  2.672E-17
1.722E+03  6.024E-28  2.751E-17
1.706E+03  6.260E-28  2.833E-17
1.690E+03  6.507E-28  2.918E-17
1.675E+03  6.763E-28  3.005E-17
1.660E+03  7.028E-28  3.094E-17
1.644E+03  7.305E-28  3.186E-17
1.629E+03  7.592E-28  3.281E-17
1.614E+03  7.891E-28  3.379E-17
1.600E+03  8.201E-28  3.480E-17
1.585E+03  8.523E-28  3.583E-17
1.570E+03  8.858E-28  3.690E-17
1.556E+03  9.206E-28  3.800E-17
1.542E+03  9.568E-28  3.913E-17
1.528E+03  9.943E-28  4.029E-17
1.514E+03  1.033E-27  4.149E-17
1.500E+03  1.074E-27  4.272E-17
1.486E+03  1.116E-27  4.399E-17
1.472E+03  1.160E-27  4.530E-17
1.459E+03  1.206E-27  4.665E-17
1.445E+03  1.253E-27  4.804E-17
1.432E+03  1.302E-27  4.947E-17
1.419E+03  1.353E-27  5.094E-17
1.406E+03  1.406E-27  5.245E-17
1.393E+03  1.461E-27  5.401E-17
1.380E+03  1.519E-27  5.561E-17
1.368E+03  1.578E-27  5.726E-17
1.355E+03  1.640E-27  5.896E-17
1.343E+03  1.704E-27  6.071E-17
1.330E+03  1.771E-27  6.251E-17
1.318E+03  1.841E-27  6.436E-17
1.306E+03  1.913E-27  6.627E-17
1.294E+03  1.987E-27  6.823E-17
1.282E+03  2.065E-27  7.025E-17
1.271E+03  2.146E-27  7.232E-17
1.259E+03  2.230E-27  7.446E-17
1.247E+03  2.317E-27  7.666E-17
1.236E+03  2.407E-27  7.892E-17
1.225E+03  2.501E-27  8.125E-17
1.213E+03  2.599E-27  8.364E-17
1.202E+03  2.700E-27  8.610E-17
1.191E+03  2.805E-27  8.863E-17
1.180E+03  2.914E-27  9.124E-17
1.169E+03  3.028E-27  9.392E-17
1.159E+03  3.145E-27  9.668E-17
1.148E+03  3.267E-27  9.951E-17
1.138E+03  3.394E-27  1.024E-16
1.127E+03  3.526E-27  1.054E-16
1.117E+03  3.663E-27  1.085E-16
1.107E+03  3.804E-27  1.117E-16
1.096E+03  3.952E-27  1.149E-16
1.086E+03  4.105E-27  1.183E-16
1.076E+03  4.263E-27  1.217E-16
1.067E+03  4.428E-27  1.253E-16
1.057E+03  4.599E-27  1.289E-16
1.047E+03  4.776E-27  1.327E-16
1.038E+03  4.960E-27  1.365E-16
1.028E+03  5.151E-27  1.405E-16
1.019E+03  5.349E-27  1.445E-16
1.009E+03  5.554E-27  1.487E-16
1.000E+03  5.767E-27  1.530E-16
9.908E+02  5.988E-27  1.574E-16
9.817E+02  6.218E-27  1.619E-16
9.727E+02  6.457E-27  1.666E-16
9.638E+02  6.704E-27  1.714E-16
9.550E+02  6.960E-27  1.763E-16
9.462E+02  7.226E-27  1.814E-16
9.376E+02  7.502E-27  1.866E-16
9.290E+02  7.788E-27  1.919E-16
9.204E+02  8.084E-27  1.974E-16
9.120E+02  8.392E-27  2.030E-16
9.036E+02  8.711E-27  2.088E-16
8.954E+02  9.041E-27  2.147E-16
8.872E+02  9.384E-27  2.208E-16
8.790E+02  9.739E-27  2.271E-16
8.710E+02  1.011E-26  2.335E-16
8.630E+02  1.049E-26  2.401E-16
8.551E+02  1.088E-26  2.468E-16
8.472E+02  1.129E-26  2.538E-16
8.395E+02  1.172E-26  2.609E-16
8.318E+02  1.216E-26  2.682E-16
8.241E+02  1.261E-26  2.757E-16
8.166E+02  1.308E-26  2.834E-16
8.091E+02  1.357E-26  2.913E-16
8.017E+02  1.408E-26  2.993E-16
7.943E+02  1.460E-26  3.076E-16
7.870E+02  1.514E-26  3.161E-16
7.798E+02  1.570E-26  3.249E-16
7.727E+02  1.629E-26  3.338E-16
7.656E+02  1.689E-26  3.430E-16
7.586E+02  1.751E-26  3.524E-16
7.516E+02  1.816E-26  3.621E-16
7.447E+02  1.883E-26  3.720E-16
7.379E+02  1.952E-26  3.822E-16
7.311E+02  2.024E-26  3.926E-16
7.244E+02  2.099E-26  4.033E-16
7.178E+02  2.176E-26  4.143E-16
7.112E+02  2.256E-26  4.256E-16
7.047E+02  2.339E-26  4.372E-16
6.982E+02  2.424E-26  4.490E-16
6.918E+02  2.513E-26  4.612E-16
6.855E+02  2.605E-26  4.737E-16
6.792E+02  2.700E-26  4.865E-16
6.730E+02  2.798E-26  4.995E-16
6.668E+02  2.900E-26  5.129E-16
6.607E+02  3.005E-26  5.267E-16
6.546E+02  3.114E-26  5.408E-16
6.486E+02  3.228E-26  5.553E-16
6.427E+02  3.345E-26  5.702E-16
6.368E+02  3.466E-26  5.855E-16
6.310E+02  3.592E-26  6.011E-16
6.252E+02  3.722E-26  6.172E-16
6.194E+02  3.856E-26  6.336E-16
6.138E+02  3.996E-26  6.505E-16
6.081E+02  4.140E-26  6.678E-16
6.026E+02  4.289E-26  6.855E-16
5.970E+02  4.443E-26  7.037E-16
5.916E+02  4.603E-26  7.223E-16
5.861E+02  4.768E-26  7.413E-16
5.808E+02  4.939E-26  7.609E-16
5.754E+02  5.116E-26  7.809E-16
5.702E+02  5.299E-26  8.014E-16
5.649E+02  5.488E-26  8.224E-16
5.598E+02  5.684E-26  8.439E-16
5.546E+02  5.886E-26  8.659E-16
5.495E+02  6.095E-26  8.885E-16
5.445E+02  6.312E-26  9.116E-16
5.395E+02  6.535E-26  9.353E-16
5.346E+02  6.767E-26  9.595E-16
5.297E+02  7.006E-26  9.843E-16
5.248E+02  7.253E-26  1.010E-15
5.200E+02  7.509E-26  1.036E-15
5.152E+02  7.773E-26  1.062E-15
5.105E+02  8.046E-26  1.090E-15
5.058E+02  8.329E-26  1.117E-15
5.012E+02  8.620E-26  1.146E-15
4.966E+02  8.921E-26  1.175E-15
4.920E+02  9.232E-26  1.205E-15
4.875E+02  9.554E-26  1.236E-15
4.831E+02  9.886E-26  1.267E-15
4.786E+02  1.023E-25  1.299E-15
4.742E+02  1.058E-25  1.331E-15
4.699E+02  1.095E-25  1.365E-15
4.656E+02  1.133E-25  1.399E-15
4.613E+02  1.172E-25  1.434E-15
4.571E+02  1.212E-25  1.469E-15
4.529E+02  1.253E-25  1.506E-15
4.487E+02  1.296E-25  1.543E-15
4.446E+02  1.340E-25  1.581E-15
4.406E+02  1.386E-25  1.620E-15
4.365E+02  1.433E-25  1.659E-15
4.325E+02  1.481E-25  1.700E-15
4.285E+02  1.531E-25  1.741E-15
4.246E+02  1.583E-25  1.783E-15
4.207E+02  1.636E-25  1.826E-15
4.169E+02  1.691E-25  1.870E-15
4.130E+02  1.748E-25  1.915E-15
4.093E+02  1.806E-25  1.961E-15
4.055E+02  1.866E-25  2.007E-15
4.018E+02  1.928E-25  2.055E-15
3.981E+02  1.992E-25  2.104E-15
3.945E+02  2.058E-25  2.153E-15
3.908E+02  2.126E-25  2.204E-15
3.873E+02  2.196E-25  2.255E-15
3.837E+02  2.268E-25  2.308E-15
3.802E+02  2.342E-25  2.362E-15
3.767E+02  2.418E-25  2.416E-15
3.733E+02  2.497E-25  2.472E-15
3.698E+02  2.578E-25  2.529E-15
3.664E+02  2.661E-25  2.586E-15
3.631E+02  2.746E-25  2.645E-15
3.597E+02  2.835E-25  2.705E-15
3.565E+02  2.925E-25  2.766E-15
3.532E+02  3.019E-25  2.828E-15
3.499E+02  3.114E-25  2.891E-15
3.467E+02  3.213E-25  2.955E-15
3.436E+02  3.314E-25  3.020E-15
3.404E+02  3.419E-25  3.087E-15
3.373E+02  3.526E-25  3.154E-15
3.342E+02  3.636E-25  3.223E-15
3.311E+02  3.749E-25  3.293E-15
3.281E+02  3.865E-25  3.364E-15
3.251E+02  3.984E-25  3.436E-15
3.221E+02  4.107E-25  3.509E-15
3.192E+02  4.232E-25  3.583E-15
3.162E+02  4.361E-25  3.658E-15
3.133E+02  4.494E-25  3.735E-15
3.105E+02  4.629E-25  3.812E-15
3.076E+02  4.769E-25  3.891E-15
3.048E+02  4.912E-25  3.971E-15
3.020E+02  5.058E-25  4.052E-15
2.992E+02  5.208E-25  4.134E-15
2.965E+02  5.362E-25  4.217E-15
2.938E+02  5.520E-25  4.301E-15
2.911E+02  5.682E-25  4.387E-15
2.884E+02  5.847E-25  4.473E-15
2.858E+02  6.017E-25  4.561E-15
2.831E+02  6.191E-25  4.650E-15
2.805E+02  6.369E-25  4.739E-15
2.780E+02  6.551E-25  4.830E-15
2.754E+02  6.737E-25  4.922E-15
2.729E+02  6.928E-25  5.015E-15
2.704E+02  7.124E-25  5.110E-15
2.679E+02  7.324E-25  5.205E-15
2.655E+02  7.529E-25  5.302E-15
2.630E+02  7.739E-25  5.399E-15
2.606E+02  7.953E-25  5.498E-15
2.582E+02  8.172E-25  5.598E-15
2.559E+02  8.395E-25  5.697E-15
2.535E+02  8.621E-25  5.797E-15
2.512E+02  8.851E-25  5.897E-15
2.489E+02  9.082E-25  5.996E-15
2.466E+02  9.312E-25  6.092E-15
2.443E+02  9.546E-25  6.187E-15
2.421E+02  9.782E-25  6.282E-15
2.399E+02  1.002E-24  6.376E-15
2.377E+02  1.026E-24  6.468E-15
2.355E+02  1.050E-24  6.560E-15
2.333E+02  1.075E-24  6.652E-15
2.312E+02  1.100E-24  6.744E-15
2.291E+02  1.125E-24  6.837E-15
2.270E+02  1.151E-24  6.929E-15
2.249E+02  1.177E-24  7.021E-15
2.228E+02  1.203E-24  7.113E-15
2.208E+02  1.230E-24  7.205E-15
2.188E+02  1.257E-24  7.297E-15
2.168E+02  1.285E-24  7.389E-15
2.148E+02  1.313E-24  7.481E-15
2.128E+02  1.341E-24  7.572E-15
2.109E+02  1.370E-24  7.663E-15
2.089E+02  1.399E-24  7.754E-15
2.070E+02  1.429E-24  7.844E-15
2.051E+02  1.458E-24  7.934E-15
2.032E+02  1.488E-24  8.023E-15
2.014E+02  1.519E-24  8.112E-15
1.995E+02  1.550E-24  8.201E-15
1.977E+02  1.581E-24  8.289E-15
1.959E+02  1.612E-24  8.376E-15
1.941E+02  1.644E-24  8.463E-15
1.923E+02  1.676E-24  8.549E-15
1.905E+02  1.708E-24  8.635E-15
1.888E+02  1.741E-24  8.720E-15
1.871E+02  1.774E-24  8.804E-15
1.854E+02  1.808E-24  8.887E-15
1.837E+02  1.841E-24  8.971E-15
1.820E+02  1.876E-24  9.053E-15
1.803E+02  1.910E-24  9.135E-15
1.786E+02  1.945E-24  9.216E-15
1.770E+02  1.980E-24  9.297E-15
1.754E+02  2.016E-24  9.377E-15
1.738E+02  2.052E-24  9.457E-15
1.722E+02  2.088E-24  9.536E-15
1.706E+02  2.125E-24  9.615E-15
1.690E+02  2.162E-24  9.693E-15
1.675E+02  2.199E-24  9.771E-15
1.660E+02  2.237E-24  9.849E-15
1.644E+02  2.276E-24  9.927E-15
1.629E+02  2.315E-24  1.000E-14
1.614E+02  2.355E-24  1.008E-14
1.600E+02  2.395E-24  1.016E-14
1.585E+02  2.435E-24  1.024E-14
1.570E+02  2.477E-24  1.032E-14
1.556E+02  2.519E-24  1.040E-14
1.542E+02  2.562E-24  1.048E-14
1.528E+02  2.606E-24  1.056E-14
1.514E+02  2.650E-24  1.064E-14
1.500E+02  2.695E-24  1.072E-14
1.486E+02  2.740E-24  1.080E-14
1.472E+02  2.786E-24  1.088E-14
1.459E+02  2.831E-24  1.096E-14
1.445E+02  2.876E-24  1.103E-14
1.432E+02  2.919E-24  1.109E-14
1.419E+02  2.960E-24  1.114E-14
1.406E+02  2.998E-24  1.118E-14
1.393E+02  3.031E-24  1.120E-14
1.380E+02  3.060E-24  1.120E-14
1.368E+02  3.084E-24  1.119E-14
1.355E+02  3.105E-24  1.116E-14
1.343E+02  3.123E-24  1.112E-14
1.330E+02  3.140E-24  1.108E-14
1.318E+02  3.155E-24  1.103E-14
1.306E+02  3.171E-24  1.099E-14
1.294E+02  3.187E-24  1.094E-14
1.282E+02  3.203E-24  1.089E-14
1.271E+02  3.219E-24  1.085E-14
1.259E+02  3.237E-24  1.081E-14
1.247E+02  3.255E-24  1.077E-14
1.236E+02  3.274E-24  1.073E-14
1.225E+02  3.293E-24  1.070E-14
1.213E+02  3.313E-24  1.066E-14
1.202E+02  3.334E-24  1.063E-14
1.191E+02  3.355E-24  1.060E-14
1.180E+02  3.376E-24  1.057E-14
1.169E+02  3.398E-24  1.054E-14
1.159E+02  3.419E-24  1.051E-14
1.148E+02  3.441E-24  1.048E-14
1.138E+02  3.463E-24  1.045E-14
1.127E+02  3.485E-24  1.042E-14
1.117E+02  3.508E-24  1.039E-14
1.107E+02  3.531E-24  1.036E-14
1.096E+02  3.554E-24  1.034E-14
1.086E+02  3.577E-24  1.031E-14
1.076E+02  3.600E-24  1.028E-14
1.067E+02  3.623E-24  1.025E-14
1.057E+02  3.646E-24  1.022E-14
1.047E+02  3.669E-24  1.019E-14
1.038E+02  3.691E-24  1.016E-14
1.028E+02  3.714E-24  1.013E-14
1.019E+02  3.736E-24  1.010E-14
1.009E+02  3.759E-24  1.006E-14
1.000E+02  3.781E-24  1.003E-14
9.908E+01  3.802E-24  9.994E-15
9.817E+01  3.824E-24  9.959E-15
9.727E+01  3.845E-24  9.922E-15
9.638E+01  3.867E-24  9.886E-15
9.550E+01  3.888E-24  9.848E-15
9.462E+01  3.908E-24  9.810E-15
9.376E+01  3.929E-24  9.771E-15
9.290E+01  3.949E-24  9.731E-15
9.204E+01  3.969E-24  9.691E-15
9.120E+01  3.989E-24  9.650E-15
9.036E+01  4.008E-24  9.608E-15
8.954E+01  4.028E-24  9.566E-15
8.872E+01  4.047E-24  9.524E-15
8.790E+01  4.066E-24  9.481E-15
8.710E+01  4.085E-24  9.438E-15
8.630E+01  4.104E-24  9.395E-15
8.551E+01  4.123E-24  9.352E-15
8.472E+01  4.141E-24  9.307E-15
8.395E+01  4.160E-24  9.263E-15
8.318E+01  4.178E-24  9.218E-15
8.241E+01  4.196E-24  9.174E-15
8.166E+01  4.215E-24  9.130E-15
8.091E+01  4.233E-24  9.085E-15
8.017E+01  4.251E-24  9.041E-15
7.943E+01  4.270E-24  8.996E-15
7.870E+01  4.287E-24  8.951E-15
7.798E+01  4.305E-24  8.906E-15
7.727E+01  4.323E-24  8.861E-15
7.656E+01  4.341E-24  8.816E-15
7.586E+01  4.359E-24  8.771E-15
7.516E+01  4.377E-24  8.726E-15
7.447E+01  4.394E-24  8.681E-15
7.379E+01  4.411E-24  8.634E-15
7.311E+01  4.429E-24  8.589E-15
7.244E+01  4.446E-24  8.543E-15
7.178E+01  4.463E-24  8.498E-15
7.112E+01  4.481E-24  8.453E-15
7.047E+01  4.499E-24  8.409E-15
6.982E+01  4.517E-24  8.366E-15
6.918E+01  4.536E-24  8.323E-15
6.855E+01  4.554E-24  8.280E-15
6.792E+01  4.572E-24  8.237E-15
6.730E+01  4.591E-24  8.195E-15
6.668E+01  4.609E-24  8.153E-15
6.607E+01  4.628E-24  8.112E-15
6.546E+01  4.648E-24  8.070E-15
6.486E+01  4.667E-24  8.030E-15
