Dust emission from Draine & Li (2007): ApJ 657, 810-837
================================================================
         5 = grain model
 4.000E-08 4.000E-01 3.000E-05 = a_01 (cm) , sigma_1 , b_C1/0.92
 2.500E-07 4.000E-01 1.000E-05 = a_02 (cm) , sigma_2 , b_C2/0.92
 2.000E-01 1.000E+04 2.000E+00 = Umin , Umax, beta (dN/dU propto U^{-beta})
 2.164E+00 = <U> 
     mmp83 = radfield
 9.728E-24 = power/H (erg s-1)
 band   nu*P_nu(band) j_nu(band)
 (um)   (erg s-1 H-1)(Jy cm2 sr-1 H-1)
1.270E+00  2.682E-26  9.036E-19 COBE-DIRBE
2.220E+00  3.431E-26  2.020E-18 COBE-DIRBE
3.530E+00  2.230E-25  2.088E-17 COBE-DIRBE
4.880E+00  1.042E-25  1.349E-17 COBE-DIRBE
1.229E+01  1.012E-24  3.300E-16 COBE-DIRBE
2.079E+01  1.191E-24  6.566E-16 COBE-DIRBE
5.599E+01  4.395E-24  6.528E-15 COBE-DIRBE
9.770E+01  3.624E-24  9.391E-15 COBE-DIRBE
1.479E+02  2.619E-24  1.027E-14 COBE-DIRBE
2.479E+02  9.665E-25  6.354E-15 COBE-DIRBE
1.200E+01  1.053E-24  3.351E-16 IRAS
2.500E+01  1.513E-24  1.003E-15 IRAS
6.000E+01  4.329E-24  6.889E-15 IRAS
1.000E+02  3.575E-24  9.483E-15 IRAS
3.550E+00  2.593E-25  2.442E-17 SST-IRAC
4.493E+00  7.295E-26  8.695E-18 SST-IRAC
5.731E+00  6.214E-25  9.446E-17 SST-IRAC
7.872E+00  1.493E-24  3.117E-16 SST-IRAC
2.368E+01  1.334E-24  8.382E-16 SST-MIPS
7.142E+01  3.776E-24  7.153E-15 SST-MIPS
1.559E+02  2.329E-24  9.629E-15 SST-MIPS
1.600E+01  9.032E-25  3.833E-16 SST-IRSPU
2.200E+01  1.296E-24  7.561E-16 SST-IRSPU











lambda    nu*dP/dnu     j_nu
 (um)   (erg s-1 H-1)(Jy cm2 sr-1 H-1)
1.000E+04  4.881E-31  1.295E-19
9.908E+03  5.060E-31  1.330E-19
9.817E+03  5.244E-31  1.366E-19
9.727E+03  5.436E-31  1.403E-19
9.638E+03  5.634E-31  1.440E-19
9.550E+03  5.839E-31  1.479E-19
9.462E+03  6.052E-31  1.519E-19
9.376E+03  6.273E-31  1.560E-19
9.290E+03  6.502E-31  1.602E-19
9.204E+03  6.739E-31  1.645E-19
9.120E+03  6.985E-31  1.690E-19
9.036E+03  7.240E-31  1.735E-19
8.954E+03  7.503E-31  1.782E-19
8.872E+03  7.776E-31  1.830E-19
8.790E+03  8.058E-31  1.879E-19
8.710E+03  8.351E-31  1.929E-19
8.630E+03  8.654E-31  1.981E-19
8.551E+03  8.969E-31  2.034E-19
8.472E+03  9.295E-31  2.089E-19
8.395E+03  9.633E-31  2.145E-19
8.318E+03  9.984E-31  2.203E-19
8.241E+03  1.035E-30  2.262E-19
8.166E+03  1.073E-30  2.323E-19
8.091E+03  1.112E-30  2.386E-19
8.017E+03  1.152E-30  2.450E-19
7.943E+03  1.194E-30  2.517E-19
7.870E+03  1.238E-30  2.585E-19
7.798E+03  1.283E-30  2.655E-19
7.727E+03  1.330E-30  2.727E-19
7.656E+03  1.379E-30  2.801E-19
7.586E+03  1.430E-30  2.877E-19
7.516E+03  1.482E-30  2.955E-19
7.447E+03  1.536E-30  3.035E-19
7.379E+03  1.593E-30  3.118E-19
7.311E+03  1.651E-30  3.202E-19
7.244E+03  1.712E-30  3.290E-19
7.178E+03  1.775E-30  3.379E-19
7.112E+03  1.840E-30  3.472E-19
7.047E+03  1.908E-30  3.566E-19
6.982E+03  1.978E-30  3.664E-19
6.918E+03  2.051E-30  3.763E-19
6.855E+03  2.126E-30  3.866E-19
6.792E+03  2.204E-30  3.972E-19
6.730E+03  2.286E-30  4.080E-19
6.668E+03  2.370E-30  4.192E-19
6.607E+03  2.457E-30  4.307E-19
6.546E+03  2.548E-30  4.425E-19
6.486E+03  2.642E-30  4.546E-19
6.427E+03  2.740E-30  4.671E-19
6.368E+03  2.841E-30  4.799E-19
6.310E+03  2.946E-30  4.931E-19
6.252E+03  3.055E-30  5.066E-19
6.194E+03  3.168E-30  5.206E-19
6.138E+03  3.286E-30  5.349E-19
6.081E+03  3.408E-30  5.497E-19
6.026E+03  3.534E-30  5.649E-19
5.970E+03  3.665E-30  5.805E-19
5.916E+03  3.801E-30  5.965E-19
5.861E+03  3.943E-30  6.130E-19
5.808E+03  4.089E-30  6.300E-19
5.754E+03  4.241E-30  6.474E-19
5.702E+03  4.399E-30  6.653E-19
5.649E+03  4.563E-30  6.838E-19
5.598E+03  4.733E-30  7.028E-19
5.546E+03  4.910E-30  7.223E-19
5.495E+03  5.093E-30  7.424E-19
5.445E+03  5.283E-30  7.630E-19
5.395E+03  5.480E-30  7.843E-19
5.346E+03  5.685E-30  8.061E-19
5.297E+03  5.898E-30  8.286E-19
5.248E+03  6.118E-30  8.517E-19
5.200E+03  6.347E-30  8.755E-19
5.152E+03  6.585E-30  8.999E-19
5.105E+03  6.831E-30  9.251E-19
5.058E+03  7.087E-30  9.510E-19
5.012E+03  7.353E-30  9.776E-19
4.966E+03  7.629E-30  1.005E-18
4.920E+03  7.915E-30  1.033E-18
4.875E+03  8.212E-30  1.062E-18
4.831E+03  8.520E-30  1.092E-18
4.786E+03  8.841E-30  1.122E-18
4.742E+03  9.173E-30  1.154E-18
4.699E+03  9.518E-30  1.186E-18
4.656E+03  9.876E-30  1.220E-18
4.613E+03  1.025E-29  1.254E-18
4.571E+03  1.063E-29  1.289E-18
4.529E+03  1.104E-29  1.326E-18
4.487E+03  1.145E-29  1.363E-18
4.446E+03  1.188E-29  1.402E-18
4.406E+03  1.233E-29  1.441E-18
4.365E+03  1.280E-29  1.482E-18
4.325E+03  1.328E-29  1.524E-18
4.285E+03  1.379E-29  1.567E-18
4.246E+03  1.431E-29  1.612E-18
4.207E+03  1.485E-29  1.657E-18
4.169E+03  1.541E-29  1.704E-18
4.130E+03  1.600E-29  1.753E-18
4.093E+03  1.660E-29  1.803E-18
4.055E+03  1.723E-29  1.854E-18
4.018E+03  1.789E-29  1.907E-18
3.981E+03  1.857E-29  1.961E-18
3.945E+03  1.927E-29  2.017E-18
3.908E+03  2.001E-29  2.074E-18
3.873E+03  2.077E-29  2.133E-18
3.837E+03  2.156E-29  2.194E-18
3.802E+03  2.238E-29  2.257E-18
3.767E+03  2.323E-29  2.321E-18
3.733E+03  2.411E-29  2.387E-18
3.698E+03  2.503E-29  2.456E-18
3.664E+03  2.599E-29  2.526E-18
3.631E+03  2.698E-29  2.598E-18
3.597E+03  2.801E-29  2.673E-18
3.565E+03  2.908E-29  2.750E-18
3.532E+03  3.019E-29  2.829E-18
3.499E+03  3.135E-29  2.910E-18
3.467E+03  3.255E-29  2.994E-18
3.436E+03  3.380E-29  3.080E-18
3.404E+03  3.509E-29  3.169E-18
3.373E+03  3.644E-29  3.260E-18
3.342E+03  3.784E-29  3.354E-18
3.311E+03  3.929E-29  3.451E-18
3.281E+03  4.080E-29  3.551E-18
3.251E+03  4.237E-29  3.654E-18
3.221E+03  4.400E-29  3.760E-18
3.192E+03  4.570E-29  3.868E-18
3.162E+03  4.746E-29  3.981E-18
3.133E+03  4.928E-29  4.096E-18
3.105E+03  5.118E-29  4.215E-18
3.076E+03  5.316E-29  4.338E-18
3.048E+03  5.521E-29  4.464E-18
3.020E+03  5.734E-29  4.594E-18
2.992E+03  5.956E-29  4.727E-18
2.965E+03  6.185E-29  4.864E-18
2.938E+03  6.424E-29  5.006E-18
2.911E+03  6.671E-29  5.151E-18
2.884E+03  6.929E-29  5.301E-18
2.858E+03  7.197E-29  5.455E-18
2.831E+03  7.475E-29  5.614E-18
2.805E+03  7.764E-29  5.778E-18
2.780E+03  8.064E-29  5.946E-18
2.754E+03  8.376E-29  6.120E-18
2.729E+03  8.701E-29  6.298E-18
2.704E+03  9.038E-29  6.482E-18
2.679E+03  9.388E-29  6.672E-18
2.655E+03  9.753E-29  6.867E-18
2.630E+03  1.013E-28  7.069E-18
2.606E+03  1.052E-28  7.276E-18
2.582E+03  1.093E-28  7.489E-18
2.559E+03  1.136E-28  7.709E-18
2.535E+03  1.180E-28  7.935E-18
2.512E+03  1.226E-28  8.168E-18
2.489E+03  1.274E-28  8.409E-18
2.466E+03  1.323E-28  8.656E-18
2.443E+03  1.375E-28  8.911E-18
2.421E+03  1.428E-28  9.173E-18
2.399E+03  1.484E-28  9.444E-18
2.377E+03  1.542E-28  9.722E-18
2.355E+03  1.602E-28  1.001E-17
2.333E+03  1.665E-28  1.030E-17
2.312E+03  1.730E-28  1.061E-17
2.291E+03  1.797E-28  1.092E-17
2.270E+03  1.868E-28  1.124E-17
2.249E+03  1.941E-28  1.158E-17
2.228E+03  2.016E-28  1.192E-17
2.208E+03  2.095E-28  1.227E-17
2.188E+03  2.177E-28  1.264E-17
2.168E+03  2.263E-28  1.301E-17
2.148E+03  2.351E-28  1.340E-17
2.128E+03  2.443E-28  1.379E-17
2.109E+03  2.539E-28  1.420E-17
2.089E+03  2.638E-28  1.462E-17
2.070E+03  2.742E-28  1.506E-17
2.051E+03  2.849E-28  1.550E-17
2.032E+03  2.961E-28  1.596E-17
2.014E+03  3.077E-28  1.644E-17
1.995E+03  3.198E-28  1.692E-17
1.977E+03  3.323E-28  1.743E-17
1.959E+03  3.453E-28  1.794E-17
1.941E+03  3.589E-28  1.848E-17
1.923E+03  3.729E-28  1.902E-17
1.905E+03  3.876E-28  1.959E-17
1.888E+03  4.028E-28  2.017E-17
1.871E+03  4.186E-28  2.077E-17
1.854E+03  4.350E-28  2.139E-17
1.837E+03  4.521E-28  2.202E-17
1.820E+03  4.698E-28  2.268E-17
1.803E+03  4.883E-28  2.335E-17
1.786E+03  5.075E-28  2.405E-17
1.770E+03  5.274E-28  2.476E-17
1.754E+03  5.481E-28  2.550E-17
1.738E+03  5.696E-28  2.626E-17
1.722E+03  5.920E-28  2.704E-17
1.706E+03  6.153E-28  2.784E-17
1.690E+03  6.394E-28  2.867E-17
1.675E+03  6.645E-28  2.952E-17
1.660E+03  6.906E-28  3.040E-17
1.644E+03  7.177E-28  3.131E-17
1.629E+03  7.459E-28  3.224E-17
1.614E+03  7.752E-28  3.320E-17
1.600E+03  8.056E-28  3.418E-17
1.585E+03  8.372E-28  3.520E-17
1.570E+03  8.701E-28  3.624E-17
1.556E+03  9.042E-28  3.732E-17
1.542E+03  9.397E-28  3.843E-17
1.528E+03  9.766E-28  3.957E-17
1.514E+03  1.015E-27  4.074E-17
1.500E+03  1.055E-27  4.195E-17
1.486E+03  1.096E-27  4.320E-17
1.472E+03  1.139E-27  4.448E-17
1.459E+03  1.184E-27  4.580E-17
1.445E+03  1.230E-27  4.716E-17
1.432E+03  1.278E-27  4.856E-17
1.419E+03  1.328E-27  5.000E-17
1.406E+03  1.380E-27  5.149E-17
1.393E+03  1.434E-27  5.301E-17
1.380E+03  1.491E-27  5.458E-17
1.368E+03  1.549E-27  5.620E-17
1.355E+03  1.610E-27  5.786E-17
1.343E+03  1.673E-27  5.957E-17
1.330E+03  1.738E-27  6.134E-17
1.318E+03  1.806E-27  6.315E-17
1.306E+03  1.877E-27  6.502E-17
1.294E+03  1.950E-27  6.694E-17
1.282E+03  2.026E-27  6.891E-17
1.271E+03  2.105E-27  7.094E-17
1.259E+03  2.187E-27  7.304E-17
1.247E+03  2.272E-27  7.519E-17
1.236E+03  2.361E-27  7.740E-17
1.225E+03  2.453E-27  7.968E-17
1.213E+03  2.548E-27  8.202E-17
1.202E+03  2.647E-27  8.443E-17
1.191E+03  2.750E-27  8.690E-17
1.180E+03  2.857E-27  8.945E-17
1.169E+03  2.968E-27  9.207E-17
1.159E+03  3.083E-27  9.477E-17
1.148E+03  3.203E-27  9.754E-17
1.138E+03  3.327E-27  1.004E-16
1.127E+03  3.456E-27  1.033E-16
1.117E+03  3.589E-27  1.063E-16
1.107E+03  3.728E-27  1.094E-16
1.096E+03  3.872E-27  1.126E-16
1.086E+03  4.022E-27  1.159E-16
1.076E+03  4.177E-27  1.193E-16
1.067E+03  4.338E-27  1.227E-16
1.057E+03  4.505E-27  1.263E-16
1.047E+03  4.678E-27  1.299E-16
1.038E+03  4.858E-27  1.337E-16
1.028E+03  5.044E-27  1.375E-16
1.019E+03  5.238E-27  1.415E-16
1.009E+03  5.438E-27  1.456E-16
1.000E+03  5.647E-27  1.498E-16
9.908E+02  5.863E-27  1.541E-16
9.817E+02  6.087E-27  1.585E-16
9.727E+02  6.320E-27  1.631E-16
9.638E+02  6.562E-27  1.678E-16
9.550E+02  6.812E-27  1.726E-16
9.462E+02  7.072E-27  1.775E-16
9.376E+02  7.341E-27  1.826E-16
9.290E+02  7.620E-27  1.878E-16
9.204E+02  7.910E-27  1.931E-16
9.120E+02  8.210E-27  1.986E-16
9.036E+02  8.521E-27  2.043E-16
8.954E+02  8.844E-27  2.100E-16
8.872E+02  9.178E-27  2.160E-16
8.790E+02  9.524E-27  2.221E-16
8.710E+02  9.883E-27  2.283E-16
8.630E+02  1.026E-26  2.348E-16
8.551E+02  1.064E-26  2.413E-16
8.472E+02  1.104E-26  2.481E-16
8.395E+02  1.145E-26  2.550E-16
8.318E+02  1.188E-26  2.622E-16
8.241E+02  1.233E-26  2.695E-16
8.166E+02  1.279E-26  2.769E-16
8.091E+02  1.326E-26  2.846E-16
8.017E+02  1.375E-26  2.925E-16
7.943E+02  1.427E-26  3.006E-16
7.870E+02  1.479E-26  3.089E-16
7.798E+02  1.534E-26  3.174E-16
7.727E+02  1.591E-26  3.261E-16
7.656E+02  1.650E-26  3.350E-16
7.586E+02  1.710E-26  3.442E-16
7.516E+02  1.773E-26  3.536E-16
7.447E+02  1.839E-26  3.632E-16
7.379E+02  1.906E-26  3.731E-16
7.311E+02  1.976E-26  3.833E-16
7.244E+02  2.049E-26  3.937E-16
7.178E+02  2.124E-26  4.044E-16
7.112E+02  2.202E-26  4.154E-16
7.047E+02  2.282E-26  4.266E-16
6.982E+02  2.366E-26  4.382E-16
6.918E+02  2.452E-26  4.500E-16
6.855E+02  2.542E-26  4.621E-16
6.792E+02  2.634E-26  4.746E-16
6.730E+02  2.730E-26  4.873E-16
6.668E+02  2.828E-26  5.003E-16
6.607E+02  2.931E-26  5.136E-16
6.546E+02  3.037E-26  5.274E-16
6.486E+02  3.147E-26  5.415E-16
6.427E+02  3.261E-26  5.560E-16
6.368E+02  3.379E-26  5.708E-16
6.310E+02  3.501E-26  5.860E-16
6.252E+02  3.628E-26  6.016E-16
6.194E+02  3.759E-26  6.176E-16
6.138E+02  3.894E-26  6.339E-16
6.081E+02  4.034E-26  6.507E-16
6.026E+02  4.179E-26  6.679E-16
5.970E+02  4.329E-26  6.856E-16
5.916E+02  4.484E-26  7.036E-16
5.861E+02  4.644E-26  7.221E-16
5.808E+02  4.810E-26  7.411E-16
5.754E+02  4.982E-26  7.605E-16
5.702E+02  5.160E-26  7.804E-16
5.649E+02  5.344E-26  8.008E-16
5.598E+02  5.534E-26  8.216E-16
5.546E+02  5.730E-26  8.430E-16
5.495E+02  5.933E-26  8.649E-16
5.445E+02  6.143E-26  8.873E-16
5.395E+02  6.361E-26  9.103E-16
5.346E+02  6.585E-26  9.338E-16
5.297E+02  6.817E-26  9.578E-16
5.248E+02  7.057E-26  9.825E-16
5.200E+02  7.305E-26  1.008E-15
5.152E+02  7.562E-26  1.033E-15
5.105E+02  7.827E-26  1.060E-15
5.058E+02  8.100E-26  1.087E-15
5.012E+02  8.383E-26  1.114E-15
4.966E+02  8.675E-26  1.143E-15
4.920E+02  8.977E-26  1.172E-15
4.875E+02  9.289E-26  1.201E-15
4.831E+02  9.611E-26  1.231E-15
4.786E+02  9.943E-26  1.262E-15
4.742E+02  1.029E-25  1.294E-15
4.699E+02  1.064E-25  1.326E-15
4.656E+02  1.101E-25  1.359E-15
4.613E+02  1.138E-25  1.393E-15
4.571E+02  1.177E-25  1.427E-15
4.529E+02  1.218E-25  1.463E-15
4.487E+02  1.259E-25  1.499E-15
4.446E+02  1.302E-25  1.535E-15
4.406E+02  1.346E-25  1.573E-15
4.365E+02  1.392E-25  1.611E-15
4.325E+02  1.439E-25  1.650E-15
4.285E+02  1.487E-25  1.690E-15
4.246E+02  1.537E-25  1.731E-15
4.207E+02  1.589E-25  1.773E-15
4.169E+02  1.642E-25  1.815E-15
4.130E+02  1.696E-25  1.859E-15
4.093E+02  1.753E-25  1.903E-15
4.055E+02  1.811E-25  1.948E-15
4.018E+02  1.871E-25  1.994E-15
3.981E+02  1.933E-25  2.041E-15
3.945E+02  1.997E-25  2.089E-15
3.908E+02  2.062E-25  2.138E-15
3.873E+02  2.130E-25  2.188E-15
3.837E+02  2.199E-25  2.239E-15
3.802E+02  2.271E-25  2.290E-15
3.767E+02  2.345E-25  2.343E-15
3.733E+02  2.421E-25  2.397E-15
3.698E+02  2.499E-25  2.452E-15
3.664E+02  2.580E-25  2.507E-15
3.631E+02  2.662E-25  2.564E-15
3.597E+02  2.748E-25  2.622E-15
3.565E+02  2.835E-25  2.681E-15
3.532E+02  2.925E-25  2.741E-15
3.499E+02  3.018E-25  2.801E-15
3.467E+02  3.113E-25  2.863E-15
3.436E+02  3.211E-25  2.926E-15
3.404E+02  3.312E-25  2.991E-15
3.373E+02  3.415E-25  3.056E-15
3.342E+02  3.522E-25  3.122E-15
3.311E+02  3.631E-25  3.189E-15
3.281E+02  3.743E-25  3.257E-15
3.251E+02  3.858E-25  3.327E-15
3.221E+02  3.976E-25  3.397E-15
3.192E+02  4.097E-25  3.469E-15
3.162E+02  4.222E-25  3.542E-15
3.133E+02  4.350E-25  3.615E-15
3.105E+02  4.481E-25  3.690E-15
3.076E+02  4.615E-25  3.766E-15
3.048E+02  4.753E-25  3.843E-15
3.020E+02  4.895E-25  3.921E-15
2.992E+02  5.039E-25  4.000E-15
2.965E+02  5.188E-25  4.080E-15
2.938E+02  5.340E-25  4.161E-15
2.911E+02  5.496E-25  4.243E-15
2.884E+02  5.656E-25  4.327E-15
2.858E+02  5.819E-25  4.411E-15
2.831E+02  5.987E-25  4.496E-15
2.805E+02  6.158E-25  4.583E-15
2.780E+02  6.333E-25  4.670E-15
2.754E+02  6.513E-25  4.758E-15
2.729E+02  6.697E-25  4.848E-15
2.704E+02  6.886E-25  4.939E-15
2.679E+02  7.079E-25  5.031E-15
2.655E+02  7.276E-25  5.124E-15
2.630E+02  7.478E-25  5.217E-15
2.606E+02  7.685E-25  5.312E-15
2.582E+02  7.895E-25  5.408E-15
2.559E+02  8.110E-25  5.504E-15
2.535E+02  8.328E-25  5.600E-15
2.512E+02  8.549E-25  5.696E-15
2.489E+02  8.771E-25  5.790E-15
2.466E+02  8.993E-25  5.882E-15
2.443E+02  9.217E-25  5.974E-15
2.421E+02  9.444E-25  6.065E-15
2.399E+02  9.673E-25  6.155E-15
2.377E+02  9.902E-25  6.243E-15
2.355E+02  1.013E-24  6.331E-15
2.333E+02  1.037E-24  6.419E-15
2.312E+02  1.061E-24  6.507E-15
2.291E+02  1.085E-24  6.595E-15
2.270E+02  1.110E-24  6.683E-15
2.249E+02  1.135E-24  6.771E-15
2.228E+02  1.160E-24  6.859E-15
2.208E+02  1.186E-24  6.947E-15
2.188E+02  1.212E-24  7.035E-15
2.168E+02  1.239E-24  7.123E-15
2.148E+02  1.265E-24  7.210E-15
2.128E+02  1.293E-24  7.297E-15
2.109E+02  1.320E-24  7.383E-15
2.089E+02  1.348E-24  7.470E-15
2.070E+02  1.376E-24  7.556E-15
2.051E+02  1.404E-24  7.641E-15
2.032E+02  1.433E-24  7.726E-15
2.014E+02  1.462E-24  7.811E-15
1.995E+02  1.492E-24  7.895E-15
1.977E+02  1.521E-24  7.978E-15
1.959E+02  1.551E-24  8.061E-15
1.941E+02  1.582E-24  8.143E-15
1.923E+02  1.612E-24  8.225E-15
1.905E+02  1.643E-24  8.306E-15
1.888E+02  1.675E-24  8.387E-15
1.871E+02  1.706E-24  8.467E-15
1.854E+02  1.738E-24  8.546E-15
1.837E+02  1.770E-24  8.625E-15
1.820E+02  1.803E-24  8.703E-15
1.803E+02  1.836E-24  8.780E-15
1.786E+02  1.869E-24  8.857E-15
1.770E+02  1.903E-24  8.933E-15
1.754E+02  1.937E-24  9.009E-15
1.738E+02  1.971E-24  9.085E-15
1.722E+02  2.005E-24  9.160E-15
1.706E+02  2.040E-24  9.234E-15
1.690E+02  2.076E-24  9.308E-15
1.675E+02  2.112E-24  9.382E-15
1.660E+02  2.148E-24  9.455E-15
1.644E+02  2.185E-24  9.529E-15
1.629E+02  2.222E-24  9.603E-15
1.614E+02  2.260E-24  9.677E-15
1.600E+02  2.298E-24  9.750E-15
1.585E+02  2.337E-24  9.824E-15
1.570E+02  2.377E-24  9.899E-15
1.556E+02  2.417E-24  9.975E-15
1.542E+02  2.458E-24  1.005E-14
1.528E+02  2.500E-24  1.013E-14
1.514E+02  2.542E-24  1.021E-14
1.500E+02  2.585E-24  1.028E-14
1.486E+02  2.629E-24  1.036E-14
1.472E+02  2.673E-24  1.044E-14
1.459E+02  2.716E-24  1.051E-14
1.445E+02  2.759E-24  1.058E-14
1.432E+02  2.801E-24  1.064E-14
1.419E+02  2.840E-24  1.069E-14
1.406E+02  2.875E-24  1.072E-14
1.393E+02  2.907E-24  1.074E-14
1.380E+02  2.934E-24  1.074E-14
1.368E+02  2.957E-24  1.073E-14
1.355E+02  2.976E-24  1.070E-14
1.343E+02  2.992E-24  1.066E-14
1.330E+02  3.006E-24  1.061E-14
1.318E+02  3.020E-24  1.056E-14
1.306E+02  3.034E-24  1.051E-14
1.294E+02  3.048E-24  1.046E-14
1.282E+02  3.062E-24  1.042E-14
1.271E+02  3.077E-24  1.037E-14
1.259E+02  3.093E-24  1.033E-14
1.247E+02  3.109E-24  1.029E-14
1.236E+02  3.126E-24  1.025E-14
1.225E+02  3.143E-24  1.021E-14
1.213E+02  3.162E-24  1.018E-14
1.202E+02  3.180E-24  1.014E-14
1.191E+02  3.199E-24  1.011E-14
1.180E+02  3.219E-24  1.008E-14
1.169E+02  3.238E-24  1.005E-14
1.159E+02  3.257E-24  1.001E-14
1.148E+02  3.277E-24  9.981E-15
1.138E+02  3.297E-24  9.950E-15
1.127E+02  3.317E-24  9.919E-15
1.117E+02  3.338E-24  9.889E-15
1.107E+02  3.359E-24  9.859E-15
1.096E+02  3.379E-24  9.829E-15
1.086E+02  3.400E-24  9.799E-15
1.076E+02  3.421E-24  9.768E-15
1.067E+02  3.442E-24  9.737E-15
1.057E+02  3.462E-24  9.706E-15
1.047E+02  3.483E-24  9.674E-15
1.038E+02  3.503E-24  9.642E-15
1.028E+02  3.523E-24  9.608E-15
1.019E+02  3.543E-24  9.573E-15
1.009E+02  3.563E-24  9.538E-15
1.000E+02  3.583E-24  9.503E-15
9.908E+01  3.601E-24  9.465E-15
9.817E+01  3.620E-24  9.428E-15
9.727E+01  3.639E-24  9.389E-15
9.638E+01  3.657E-24  9.350E-15
9.550E+01  3.676E-24  9.311E-15
9.462E+01  3.693E-24  9.270E-15
9.376E+01  3.711E-24  9.229E-15
9.290E+01  3.728E-24  9.187E-15
9.204E+01  3.745E-24  9.144E-15
9.120E+01  3.762E-24  9.100E-15
9.036E+01  3.778E-24  9.056E-15
8.954E+01  3.794E-24  9.011E-15
8.872E+01  3.810E-24  8.966E-15
8.790E+01  3.826E-24  8.920E-15
8.710E+01  3.841E-24  8.874E-15
8.630E+01  3.856E-24  8.827E-15
8.551E+01  3.871E-24  8.781E-15
8.472E+01  3.885E-24  8.732E-15
8.395E+01  3.900E-24  8.684E-15
8.318E+01  3.914E-24  8.636E-15
8.241E+01  3.928E-24  8.588E-15
8.166E+01  3.942E-24  8.539E-15
8.091E+01  3.956E-24  8.491E-15
8.017E+01  3.970E-24  8.442E-15
7.943E+01  3.983E-24  8.393E-15
7.870E+01  3.996E-24  8.343E-15
7.798E+01  4.009E-24  8.293E-15
7.727E+01  4.022E-24  8.243E-15
7.656E+01  4.034E-24  8.192E-15
7.586E+01  4.046E-24  8.142E-15
7.516E+01  4.058E-24  8.091E-15
7.447E+01  4.070E-24  8.040E-15
7.379E+01  4.081E-24  7.987E-15
7.311E+01  4.092E-24  7.936E-15
7.244E+01  4.102E-24  7.883E-15
7.178E+01  4.113E-24  7.831E-15
7.112E+01  4.123E-24  7.779E-15
7.047E+01  4.134E-24  7.728E-15
6.982E+01  4.145E-24  7.677E-15
6.918E+01  4.155E-24  7.626E-15
6.855E+01  4.166E-24  7.574E-15
6.792E+01  4.176E-24  7.523E-15
6.730E+01  4.185E-24  7.472E-15
6.668E+01  4.195E-24  7.421E-15
6.607E+01  4.205E-24  7.370E-15
6.546E+01  4.215E-24  7.319E-15
6.486E+01  4.224E-24  7.268E-15
6.427E+01  4.234E-24  7.218E-15
6.368E+01  4.243E-24  7.167E-15
6.310E+01  4.252E-24  7.117E-15
6.252E+01  4.262E-24  7.068E-15
6.194E+01  4.272E-24  7.019E-15
6.138E+01  4.281E-24  6.970E-15
6.081E+01  4.291E-24  6.922E-15
6.026E+01  4.300E-24  6.874E-15
5.970E+01  4.310E-24  6.825E-15
5.916E+01  4.319E-24  6.778E-15
5.861E+01  4.328E-24  6.730E-15
5.808E+01  4.338E-24  6.682E-15
5.754E+01  4.347E-24  6.635E-15
5.702E+01  4.356E-24  6.589E-15
5.649E+01  4.366E-24  6.543E-15
5.598E+01  4.376E-24  6.497E-15
5.546E+01  4.386E-24  6.452E-15
5.495E+01  4.396E-24  6.408E-15
5.445E+01  4.406E-24  6.364E-15
5.395E+01  4.416E-24  6.320E-15
5.346E+01  4.427E-24  6.277E-15
5.297E+01  4.437E-24  6.234E-15
5.248E+01  4.448E-24  6.192E-15
5.200E+01  4.459E-24  6.150E-15
5.152E+01  4.470E-24  6.109E-15
5.105E+01  4.480E-24  6.067E-15
5.058E+01  4.492E-24  6.027E-15
5.012E+01  4.503E-24  5.986E-15
4.966E+01  4.514E-24  5.946E-15
