Dust emission from Draine & Li (2007): ApJ 657, 810-837
================================================================
         8 = grain model
 4.000E-08 4.000E-01 0.000E+00 = a_01 (cm) , sigma_1 , b_C1/0.92
 2.500E-07 4.000E-01 0.000E+00 = a_02 (cm) , sigma_2 , b_C2/0.92
 8.000E+00 8.000E+00 1.000E+00 = Umin , Umax, beta (dN/dU propto U^{-beta})
 8.000E+00 = <U> 
     mmp83 = radfield
 5.103E-24 = power/H (erg s-1)
 band   nu*P_nu(band) j_nu(band)
 (um)   (erg s-1 H-1)(Jy cm2 sr-1 H-1)
1.270E+00  1.110E-26  3.738E-19 COBE-DIRBE
2.220E+00  1.914E-26  1.127E-18 COBE-DIRBE
3.530E+00  2.118E-26  1.983E-18 COBE-DIRBE
4.880E+00  2.016E-26  2.610E-18 COBE-DIRBE
1.229E+01  1.910E-25  6.227E-17 COBE-DIRBE
2.079E+01  2.650E-25  1.461E-16 COBE-DIRBE
5.599E+01  1.713E-24  2.544E-15 COBE-DIRBE
9.770E+01  3.913E-24  1.014E-14 COBE-DIRBE
1.479E+02  2.880E-24  1.130E-14 COBE-DIRBE
2.479E+02  8.470E-25  5.569E-15 COBE-DIRBE
1.200E+01  1.951E-25  6.209E-17 IRAS
2.500E+01  2.753E-25  1.826E-16 IRAS
6.000E+01  2.016E-24  3.208E-15 IRAS
1.000E+02  3.934E-24  1.044E-14 IRAS
3.550E+00  2.121E-26  1.997E-18 SST-IRAC
4.493E+00  2.045E-26  2.437E-18 SST-IRAC
5.731E+00  2.084E-26  3.167E-18 SST-IRAC
7.872E+00  1.175E-25  2.453E-17 SST-IRAC
2.368E+01  2.644E-25  1.661E-16 SST-MIPS
7.142E+01  2.736E-24  5.184E-15 SST-MIPS
1.559E+02  2.494E-24  1.032E-14 SST-MIPS
1.600E+01  1.619E-25  6.870E-17 SST-IRSPU
2.200E+01  2.788E-25  1.627E-16 SST-IRSPU











lambda    nu*dP/dnu     j_nu
 (um)   (erg s-1 H-1)(Jy cm2 sr-1 H-1)
1.000E+04  2.361E-31  6.264E-20
9.908E+03  2.447E-31  6.432E-20
9.817E+03  2.536E-31  6.605E-20
9.727E+03  2.628E-31  6.782E-20
9.638E+03  2.724E-31  6.964E-20
9.550E+03  2.823E-31  7.150E-20
9.462E+03  2.925E-31  7.342E-20
9.376E+03  3.031E-31  7.539E-20
9.290E+03  3.142E-31  7.741E-20
9.204E+03  3.256E-31  7.949E-20
9.120E+03  3.374E-31  8.162E-20
9.036E+03  3.497E-31  8.381E-20
8.954E+03  3.623E-31  8.605E-20
8.872E+03  3.754E-31  8.834E-20
8.790E+03  3.889E-31  9.069E-20
8.710E+03  4.030E-31  9.310E-20
8.630E+03  4.176E-31  9.558E-20
8.551E+03  4.327E-31  9.813E-20
8.472E+03  4.483E-31  1.008E-19
8.395E+03  4.646E-31  1.034E-19
8.318E+03  4.814E-31  1.062E-19
8.241E+03  4.989E-31  1.091E-19
8.166E+03  5.170E-31  1.120E-19
8.091E+03  5.358E-31  1.150E-19
8.017E+03  5.552E-31  1.181E-19
7.943E+03  5.754E-31  1.212E-19
7.870E+03  5.964E-31  1.245E-19
7.798E+03  6.181E-31  1.279E-19
7.727E+03  6.406E-31  1.313E-19
7.656E+03  6.639E-31  1.348E-19
7.586E+03  6.882E-31  1.385E-19
7.516E+03  7.133E-31  1.422E-19
7.447E+03  7.393E-31  1.461E-19
7.379E+03  7.664E-31  1.500E-19
7.311E+03  7.944E-31  1.541E-19
7.244E+03  8.234E-31  1.582E-19
7.178E+03  8.536E-31  1.625E-19
7.112E+03  8.848E-31  1.669E-19
7.047E+03  9.173E-31  1.715E-19
6.982E+03  9.509E-31  1.761E-19
6.918E+03  9.857E-31  1.809E-19
6.855E+03  1.022E-30  1.858E-19
6.792E+03  1.059E-30  1.908E-19
6.730E+03  1.098E-30  1.960E-19
6.668E+03  1.138E-30  2.014E-19
6.607E+03  1.180E-30  2.068E-19
6.546E+03  1.224E-30  2.125E-19
6.486E+03  1.269E-30  2.183E-19
6.427E+03  1.315E-30  2.242E-19
6.368E+03  1.364E-30  2.304E-19
6.310E+03  1.414E-30  2.367E-19
6.252E+03  1.466E-30  2.431E-19
6.194E+03  1.520E-30  2.498E-19
6.138E+03  1.576E-30  2.567E-19
6.081E+03  1.635E-30  2.637E-19
6.026E+03  1.695E-30  2.709E-19
5.970E+03  1.758E-30  2.784E-19
5.916E+03  1.823E-30  2.861E-19
5.861E+03  1.891E-30  2.939E-19
5.808E+03  1.961E-30  3.020E-19
5.754E+03  2.033E-30  3.104E-19
5.702E+03  2.109E-30  3.189E-19
5.649E+03  2.187E-30  3.278E-19
5.598E+03  2.268E-30  3.368E-19
5.546E+03  2.353E-30  3.461E-19
5.495E+03  2.440E-30  3.557E-19
5.445E+03  2.531E-30  3.656E-19
5.395E+03  2.625E-30  3.757E-19
5.346E+03  2.723E-30  3.862E-19
5.297E+03  2.825E-30  3.969E-19
5.248E+03  2.930E-30  4.079E-19
5.200E+03  3.040E-30  4.193E-19
5.152E+03  3.153E-30  4.309E-19
5.105E+03  3.271E-30  4.430E-19
5.058E+03  3.393E-30  4.553E-19
5.012E+03  3.520E-30  4.680E-19
4.966E+03  3.652E-30  4.811E-19
4.920E+03  3.789E-30  4.945E-19
4.875E+03  3.931E-30  5.083E-19
4.831E+03  4.078E-30  5.225E-19
4.786E+03  4.231E-30  5.372E-19
4.742E+03  4.390E-30  5.522E-19
4.699E+03  4.555E-30  5.677E-19
4.656E+03  4.726E-30  5.836E-19
4.613E+03  4.903E-30  6.000E-19
4.571E+03  5.088E-30  6.169E-19
4.529E+03  5.280E-30  6.343E-19
4.487E+03  5.479E-30  6.521E-19
4.446E+03  5.685E-30  6.705E-19
4.406E+03  5.900E-30  6.894E-19
4.365E+03  6.122E-30  7.089E-19
4.325E+03  6.354E-30  7.289E-19
4.285E+03  6.594E-30  7.496E-19
4.246E+03  6.843E-30  7.708E-19
4.207E+03  7.102E-30  7.926E-19
4.169E+03  7.371E-30  8.151E-19
4.130E+03  7.651E-30  8.383E-19
4.093E+03  7.941E-30  8.621E-19
4.055E+03  8.242E-30  8.866E-19
4.018E+03  8.555E-30  9.118E-19
3.981E+03  8.880E-30  9.377E-19
3.945E+03  9.217E-30  9.644E-19
3.908E+03  9.567E-30  9.918E-19
3.873E+03  9.930E-30  1.020E-18
3.837E+03  1.031E-29  1.049E-18
3.802E+03  1.070E-29  1.079E-18
3.767E+03  1.111E-29  1.110E-18
3.733E+03  1.153E-29  1.142E-18
3.698E+03  1.197E-29  1.174E-18
3.664E+03  1.243E-29  1.208E-18
3.631E+03  1.290E-29  1.243E-18
3.597E+03  1.340E-29  1.278E-18
3.565E+03  1.391E-29  1.315E-18
3.532E+03  1.444E-29  1.353E-18
3.499E+03  1.499E-29  1.392E-18
3.467E+03  1.557E-29  1.432E-18
3.436E+03  1.617E-29  1.473E-18
3.404E+03  1.679E-29  1.516E-18
3.373E+03  1.743E-29  1.560E-18
3.342E+03  1.810E-29  1.605E-18
3.311E+03  1.880E-29  1.651E-18
3.281E+03  1.952E-29  1.699E-18
3.251E+03  2.028E-29  1.748E-18
3.221E+03  2.106E-29  1.799E-18
3.192E+03  2.187E-29  1.852E-18
3.162E+03  2.271E-29  1.905E-18
3.133E+03  2.359E-29  1.961E-18
3.105E+03  2.450E-29  2.018E-18
3.076E+03  2.545E-29  2.077E-18
3.048E+03  2.644E-29  2.137E-18
3.020E+03  2.746E-29  2.200E-18
2.992E+03  2.852E-29  2.264E-18
2.965E+03  2.963E-29  2.330E-18
2.938E+03  3.077E-29  2.398E-18
2.911E+03  3.196E-29  2.468E-18
2.884E+03  3.320E-29  2.540E-18
2.858E+03  3.449E-29  2.614E-18
2.831E+03  3.582E-29  2.690E-18
2.805E+03  3.721E-29  2.769E-18
2.780E+03  3.866E-29  2.850E-18
2.754E+03  4.016E-29  2.934E-18
2.729E+03  4.172E-29  3.020E-18
2.704E+03  4.334E-29  3.109E-18
2.679E+03  4.503E-29  3.200E-18
2.655E+03  4.679E-29  3.294E-18
2.630E+03  4.861E-29  3.391E-18
2.606E+03  5.051E-29  3.491E-18
2.582E+03  5.248E-29  3.595E-18
2.559E+03  5.453E-29  3.701E-18
2.535E+03  5.666E-29  3.810E-18
2.512E+03  5.887E-29  3.923E-18
2.489E+03  6.118E-29  4.039E-18
2.466E+03  6.357E-29  4.158E-18
2.443E+03  6.606E-29  4.282E-18
2.421E+03  6.865E-29  4.409E-18
2.399E+03  7.134E-29  4.540E-18
2.377E+03  7.414E-29  4.675E-18
2.355E+03  7.705E-29  4.814E-18
2.333E+03  8.008E-29  4.957E-18
2.312E+03  8.323E-29  5.104E-18
2.291E+03  8.650E-29  5.256E-18
2.270E+03  8.990E-29  5.413E-18
2.249E+03  9.344E-29  5.575E-18
2.228E+03  9.712E-29  5.741E-18
2.208E+03  1.009E-28  5.912E-18
2.188E+03  1.049E-28  6.089E-18
2.168E+03  1.091E-28  6.271E-18
2.148E+03  1.134E-28  6.459E-18
2.128E+03  1.178E-28  6.652E-18
2.109E+03  1.225E-28  6.851E-18
2.089E+03  1.273E-28  7.056E-18
2.070E+03  1.324E-28  7.268E-18
2.051E+03  1.376E-28  7.486E-18
2.032E+03  1.430E-28  7.710E-18
2.014E+03  1.487E-28  7.942E-18
1.995E+03  1.546E-28  8.180E-18
1.977E+03  1.607E-28  8.425E-18
1.959E+03  1.670E-28  8.678E-18
1.941E+03  1.736E-28  8.939E-18
1.923E+03  1.805E-28  9.208E-18
1.905E+03  1.876E-28  9.484E-18
1.888E+03  1.951E-28  9.770E-18
1.871E+03  2.028E-28  1.006E-17
1.854E+03  2.108E-28  1.037E-17
1.837E+03  2.192E-28  1.068E-17
1.820E+03  2.279E-28  1.100E-17
1.803E+03  2.369E-28  1.133E-17
1.786E+03  2.463E-28  1.167E-17
1.770E+03  2.561E-28  1.203E-17
1.754E+03  2.663E-28  1.239E-17
1.738E+03  2.768E-28  1.276E-17
1.722E+03  2.878E-28  1.315E-17
1.706E+03  2.993E-28  1.354E-17
1.690E+03  3.112E-28  1.395E-17
1.675E+03  3.235E-28  1.437E-17
1.660E+03  3.364E-28  1.481E-17
1.644E+03  3.497E-28  1.526E-17
1.629E+03  3.636E-28  1.572E-17
1.614E+03  3.781E-28  1.619E-17
1.600E+03  3.931E-28  1.668E-17
1.585E+03  4.087E-28  1.718E-17
1.570E+03  4.250E-28  1.770E-17
1.556E+03  4.419E-28  1.824E-17
1.542E+03  4.594E-28  1.879E-17
1.528E+03  4.777E-28  1.936E-17
1.514E+03  4.967E-28  1.994E-17
1.500E+03  5.164E-28  2.054E-17
1.486E+03  5.370E-28  2.117E-17
1.472E+03  5.583E-28  2.181E-17
1.459E+03  5.806E-28  2.247E-17
1.445E+03  6.037E-28  2.314E-17
1.432E+03  6.277E-28  2.385E-17
1.419E+03  6.526E-28  2.457E-17
1.406E+03  6.786E-28  2.531E-17
1.393E+03  7.056E-28  2.608E-17
1.380E+03  7.337E-28  2.686E-17
1.368E+03  7.629E-28  2.768E-17
1.355E+03  7.932E-28  2.851E-17
1.343E+03  8.248E-28  2.938E-17
1.330E+03  8.576E-28  3.026E-17
1.318E+03  8.917E-28  3.118E-17
1.306E+03  9.271E-28  3.212E-17
1.294E+03  9.640E-28  3.309E-17
1.282E+03  1.002E-27  3.409E-17
1.271E+03  1.042E-27  3.512E-17
1.259E+03  1.083E-27  3.618E-17
1.247E+03  1.127E-27  3.727E-17
1.236E+03  1.171E-27  3.840E-17
1.225E+03  1.218E-27  3.956E-17
1.213E+03  1.266E-27  4.075E-17
1.202E+03  1.316E-27  4.198E-17
1.191E+03  1.368E-27  4.324E-17
1.180E+03  1.423E-27  4.454E-17
1.169E+03  1.479E-27  4.588E-17
1.159E+03  1.538E-27  4.726E-17
1.148E+03  1.599E-27  4.868E-17
1.138E+03  1.662E-27  5.015E-17
1.127E+03  1.728E-27  5.165E-17
1.117E+03  1.796E-27  5.320E-17
1.107E+03  1.867E-27  5.480E-17
1.096E+03  1.941E-27  5.644E-17
1.086E+03  2.017E-27  5.813E-17
1.076E+03  2.097E-27  5.987E-17
1.067E+03  2.180E-27  6.167E-17
1.057E+03  2.266E-27  6.351E-17
1.047E+03  2.355E-27  6.541E-17
1.038E+03  2.448E-27  6.736E-17
1.028E+03  2.544E-27  6.937E-17
1.019E+03  2.644E-27  7.144E-17
1.009E+03  2.748E-27  7.356E-17
1.000E+03  2.856E-27  7.575E-17
9.908E+02  2.968E-27  7.801E-17
9.817E+02  3.085E-27  8.034E-17
9.727E+02  3.206E-27  8.273E-17
9.638E+02  3.332E-27  8.519E-17
9.550E+02  3.463E-27  8.772E-17
9.462E+02  3.599E-27  9.033E-17
9.376E+02  3.740E-27  9.301E-17
9.290E+02  3.886E-27  9.576E-17
9.204E+02  4.038E-27  9.860E-17
9.120E+02  4.196E-27  1.015E-16
9.036E+02  4.360E-27  1.045E-16
8.954E+02  4.531E-27  1.076E-16
8.872E+02  4.707E-27  1.108E-16
8.790E+02  4.890E-27  1.140E-16
8.710E+02  5.081E-27  1.174E-16
8.630E+02  5.278E-27  1.208E-16
8.551E+02  5.483E-27  1.244E-16
8.472E+02  5.696E-27  1.280E-16
8.395E+02  5.917E-27  1.317E-16
8.318E+02  6.146E-27  1.356E-16
8.241E+02  6.383E-27  1.395E-16
8.166E+02  6.630E-27  1.436E-16
8.091E+02  6.885E-27  1.478E-16
8.017E+02  7.151E-27  1.521E-16
7.943E+02  7.426E-27  1.565E-16
7.870E+02  7.711E-27  1.610E-16
7.798E+02  8.008E-27  1.656E-16
7.727E+02  8.315E-27  1.704E-16
7.656E+02  8.634E-27  1.753E-16
7.586E+02  8.965E-27  1.804E-16
7.516E+02  9.308E-27  1.856E-16
7.447E+02  9.665E-27  1.909E-16
7.379E+02  1.004E-26  1.964E-16
7.311E+02  1.042E-26  2.021E-16
7.244E+02  1.082E-26  2.079E-16
7.178E+02  1.123E-26  2.139E-16
7.112E+02  1.166E-26  2.200E-16
7.047E+02  1.211E-26  2.264E-16
6.982E+02  1.257E-26  2.329E-16
6.918E+02  1.305E-26  2.396E-16
6.855E+02  1.355E-26  2.464E-16
6.792E+02  1.407E-26  2.535E-16
6.730E+02  1.461E-26  2.607E-16
6.668E+02  1.516E-26  2.682E-16
6.607E+02  1.574E-26  2.758E-16
6.546E+02  1.634E-26  2.837E-16
6.486E+02  1.696E-26  2.919E-16
6.427E+02  1.761E-26  3.003E-16
6.368E+02  1.829E-26  3.089E-16
6.310E+02  1.899E-26  3.177E-16
6.252E+02  1.971E-26  3.269E-16
6.194E+02  2.046E-26  3.362E-16
6.138E+02  2.125E-26  3.459E-16
6.081E+02  2.206E-26  3.558E-16
6.026E+02  2.290E-26  3.660E-16
5.970E+02  2.377E-26  3.765E-16
5.916E+02  2.468E-26  3.873E-16
5.861E+02  2.562E-26  3.984E-16
5.808E+02  2.660E-26  4.098E-16
5.754E+02  2.762E-26  4.215E-16
5.702E+02  2.867E-26  4.336E-16
5.649E+02  2.976E-26  4.460E-16
5.598E+02  3.090E-26  4.588E-16
5.546E+02  3.207E-26  4.719E-16
5.495E+02  3.330E-26  4.854E-16
5.445E+02  3.457E-26  4.993E-16
5.395E+02  3.588E-26  5.135E-16
5.346E+02  3.725E-26  5.282E-16
5.297E+02  3.867E-26  5.433E-16
5.248E+02  4.014E-26  5.588E-16
5.200E+02  4.167E-26  5.748E-16
5.152E+02  4.326E-26  5.912E-16
5.105E+02  4.490E-26  6.080E-16
5.058E+02  4.661E-26  6.254E-16
5.012E+02  4.838E-26  6.432E-16
4.966E+02  5.021E-26  6.615E-16
4.920E+02  5.212E-26  6.803E-16
4.875E+02  5.410E-26  6.996E-16
4.831E+02  5.615E-26  7.195E-16
4.786E+02  5.828E-26  7.399E-16
4.742E+02  6.049E-26  7.609E-16
4.699E+02  6.277E-26  7.824E-16
4.656E+02  6.515E-26  8.046E-16
4.613E+02  6.761E-26  8.274E-16
4.571E+02  7.017E-26  8.508E-16
4.529E+02  7.282E-26  8.748E-16
4.487E+02  7.556E-26  8.995E-16
4.446E+02  7.841E-26  9.248E-16
4.406E+02  8.137E-26  9.508E-16
4.365E+02  8.443E-26  9.776E-16
4.325E+02  8.760E-26  1.005E-15
4.285E+02  9.089E-26  1.033E-15
4.246E+02  9.431E-26  1.062E-15
4.207E+02  9.784E-26  1.092E-15
4.169E+02  1.015E-25  1.122E-15
4.130E+02  1.053E-25  1.154E-15
4.093E+02  1.093E-25  1.186E-15
4.055E+02  1.133E-25  1.219E-15
4.018E+02  1.176E-25  1.253E-15
3.981E+02  1.220E-25  1.288E-15
3.945E+02  1.265E-25  1.324E-15
3.908E+02  1.312E-25  1.361E-15
3.873E+02  1.361E-25  1.398E-15
3.837E+02  1.412E-25  1.437E-15
3.802E+02  1.464E-25  1.477E-15
3.767E+02  1.519E-25  1.518E-15
3.733E+02  1.575E-25  1.559E-15
3.698E+02  1.633E-25  1.602E-15
3.664E+02  1.694E-25  1.646E-15
3.631E+02  1.756E-25  1.692E-15
3.597E+02  1.821E-25  1.738E-15
3.565E+02  1.888E-25  1.785E-15
3.532E+02  1.957E-25  1.834E-15
3.499E+02  2.029E-25  1.884E-15
3.467E+02  2.104E-25  1.935E-15
3.436E+02  2.181E-25  1.988E-15
3.404E+02  2.261E-25  2.041E-15
3.373E+02  2.343E-25  2.097E-15
3.342E+02  2.429E-25  2.153E-15
3.311E+02  2.517E-25  2.211E-15
3.281E+02  2.608E-25  2.270E-15
3.251E+02  2.703E-25  2.331E-15
3.221E+02  2.800E-25  2.393E-15
3.192E+02  2.902E-25  2.456E-15
3.162E+02  3.006E-25  2.522E-15
3.133E+02  3.113E-25  2.588E-15
3.105E+02  3.225E-25  2.656E-15
3.076E+02  3.341E-25  2.726E-15
3.048E+02  3.460E-25  2.797E-15
3.020E+02  3.583E-25  2.870E-15
2.992E+02  3.711E-25  2.945E-15
2.965E+02  3.842E-25  3.022E-15
2.938E+02  3.978E-25  3.100E-15
2.911E+02  4.118E-25  3.180E-15
2.884E+02  4.263E-25  3.261E-15
2.858E+02  4.413E-25  3.345E-15
2.831E+02  4.567E-25  3.430E-15
2.805E+02  4.726E-25  3.517E-15
2.780E+02  4.890E-25  3.606E-15
2.754E+02  5.060E-25  3.697E-15
2.729E+02  5.235E-25  3.789E-15
2.704E+02  5.416E-25  3.885E-15
2.679E+02  5.604E-25  3.982E-15
2.655E+02  5.797E-25  4.082E-15
2.630E+02  5.996E-25  4.184E-15
2.606E+02  6.202E-25  4.288E-15
2.582E+02  6.414E-25  4.393E-15
2.559E+02  6.631E-25  4.500E-15
2.535E+02  6.853E-25  4.608E-15
2.512E+02  7.081E-25  4.718E-15
2.489E+02  7.310E-25  4.826E-15
2.466E+02  7.539E-25  4.932E-15
2.443E+02  7.773E-25  5.038E-15
2.421E+02  8.011E-25  5.145E-15
2.399E+02  8.253E-25  5.252E-15
2.377E+02  8.496E-25  5.356E-15
2.355E+02  8.743E-25  5.461E-15
2.333E+02  8.996E-25  5.568E-15
2.312E+02  9.256E-25  5.676E-15
2.291E+02  9.521E-25  5.785E-15
2.270E+02  9.791E-25  5.895E-15
2.249E+02  1.007E-24  6.006E-15
2.228E+02  1.035E-24  6.118E-15
2.208E+02  1.064E-24  6.231E-15
2.188E+02  1.093E-24  6.344E-15
2.168E+02  1.123E-24  6.459E-15
2.148E+02  1.154E-24  6.574E-15
2.128E+02  1.185E-24  6.690E-15
2.109E+02  1.217E-24  6.807E-15
2.089E+02  1.249E-24  6.924E-15
2.070E+02  1.282E-24  7.041E-15
2.051E+02  1.316E-24  7.159E-15
2.032E+02  1.350E-24  7.277E-15
2.014E+02  1.385E-24  7.396E-15
1.995E+02  1.420E-24  7.515E-15
1.977E+02  1.456E-24  7.634E-15
1.959E+02  1.492E-24  7.753E-15
1.941E+02  1.529E-24  7.873E-15
1.923E+02  1.567E-24  7.992E-15
1.905E+02  1.605E-24  8.111E-15
1.888E+02  1.643E-24  8.230E-15
1.871E+02  1.683E-24  8.349E-15
1.854E+02  1.722E-24  8.468E-15
1.837E+02  1.763E-24  8.587E-15
1.820E+02  1.803E-24  8.705E-15
1.803E+02  1.845E-24  8.823E-15
1.786E+02  1.887E-24  8.940E-15
1.770E+02  1.929E-24  9.056E-15
1.754E+02  1.972E-24  9.172E-15
1.738E+02  2.015E-24  9.288E-15
1.722E+02  2.059E-24  9.403E-15
1.706E+02  2.103E-24  9.517E-15
1.690E+02  2.148E-24  9.631E-15
1.675E+02  2.193E-24  9.744E-15
1.660E+02  2.239E-24  9.856E-15
1.644E+02  2.285E-24  9.968E-15
1.629E+02  2.332E-24  1.008E-14
1.614E+02  2.380E-24  1.019E-14
1.600E+02  2.428E-24  1.030E-14
1.585E+02  2.477E-24  1.041E-14
1.570E+02  2.526E-24  1.052E-14
1.556E+02  2.576E-24  1.063E-14
1.542E+02  2.627E-24  1.074E-14
1.528E+02  2.679E-24  1.086E-14
1.514E+02  2.732E-24  1.097E-14
1.500E+02  2.787E-24  1.108E-14
1.486E+02  2.842E-24  1.120E-14
1.472E+02  2.899E-24  1.132E-14
1.459E+02  2.956E-24  1.144E-14
1.445E+02  3.014E-24  1.156E-14
1.432E+02  3.072E-24  1.167E-14
1.419E+02  3.127E-24  1.177E-14
1.406E+02  3.180E-24  1.186E-14
1.393E+02  3.229E-24  1.193E-14
1.380E+02  3.273E-24  1.199E-14
1.368E+02  3.313E-24  1.202E-14
1.355E+02  3.348E-24  1.203E-14
1.343E+02  3.380E-24  1.204E-14
1.330E+02  3.411E-24  1.204E-14
1.318E+02  3.440E-24  1.203E-14
1.306E+02  3.470E-24  1.202E-14
1.294E+02  3.499E-24  1.201E-14
1.282E+02  3.529E-24  1.200E-14
1.271E+02  3.558E-24  1.199E-14
1.259E+02  3.588E-24  1.198E-14
1.247E+02  3.618E-24  1.197E-14
1.236E+02  3.648E-24  1.196E-14
1.225E+02  3.678E-24  1.195E-14
1.213E+02  3.707E-24  1.193E-14
1.202E+02  3.736E-24  1.191E-14
1.191E+02  3.764E-24  1.189E-14
1.180E+02  3.791E-24  1.187E-14
1.169E+02  3.817E-24  1.184E-14
1.159E+02  3.843E-24  1.181E-14
1.148E+02  3.867E-24  1.178E-14
1.138E+02  3.890E-24  1.174E-14
1.127E+02  3.913E-24  1.170E-14
1.117E+02  3.934E-24  1.166E-14
1.107E+02  3.955E-24  1.161E-14
1.096E+02  3.974E-24  1.156E-14
1.086E+02  3.992E-24  1.150E-14
1.076E+02  4.008E-24  1.145E-14
1.067E+02  4.024E-24  1.138E-14
1.057E+02  4.038E-24  1.132E-14
1.047E+02  4.050E-24  1.125E-14
1.038E+02  4.061E-24  1.118E-14
1.028E+02  4.071E-24  1.110E-14
1.019E+02  4.078E-24  1.102E-14
1.009E+02  4.084E-24  1.093E-14
1.000E+02  4.088E-24  1.084E-14
9.908E+01  4.090E-24  1.075E-14
9.817E+01  4.091E-24  1.065E-14
9.727E+01  4.089E-24  1.055E-14
9.638E+01  4.086E-24  1.045E-14
9.550E+01  4.081E-24  1.034E-14
9.462E+01  4.075E-24  1.023E-14
9.376E+01  4.066E-24  1.011E-14
9.290E+01  4.056E-24  9.995E-15
9.204E+01  4.044E-24  9.874E-15
9.120E+01  4.030E-24  9.750E-15
9.036E+01  4.015E-24  9.623E-15
8.954E+01  3.997E-24  9.494E-15
8.872E+01  3.978E-24  9.362E-15
8.790E+01  3.958E-24  9.228E-15
8.710E+01  3.936E-24  9.093E-15
8.630E+01  3.912E-24  8.955E-15
8.551E+01  3.887E-24  8.815E-15
8.472E+01  3.859E-24  8.673E-15
8.395E+01  3.830E-24  8.529E-15
8.318E+01  3.799E-24  8.383E-15
8.241E+01  3.767E-24  8.235E-15
8.166E+01  3.733E-24  8.087E-15
8.091E+01  3.698E-24  7.938E-15
8.017E+01  3.662E-24  7.787E-15
7.943E+01  3.624E-24  7.635E-15
7.870E+01  3.584E-24  7.482E-15
7.798E+01  3.543E-24  7.329E-15
7.727E+01  3.501E-24  7.175E-15
7.656E+01  3.457E-24  7.021E-15
7.586E+01  3.412E-24  6.866E-15
7.516E+01  3.367E-24  6.712E-15
7.447E+01  3.319E-24  6.557E-15
7.379E+01  3.271E-24  6.403E-15
7.311E+01  3.222E-24  6.248E-15
7.244E+01  3.171E-24  6.094E-15
7.178E+01  3.120E-24  5.941E-15
7.112E+01  3.068E-24  5.788E-15
7.047E+01  3.016E-24  5.637E-15
6.982E+01  2.963E-24  5.488E-15
6.918E+01  2.910E-24  5.340E-15
6.855E+01  2.855E-24  5.192E-15
6.792E+01  2.800E-24  5.045E-15
6.730E+01  2.745E-24  4.900E-15
6.668E+01  2.689E-24  4.757E-15
6.607E+01  2.634E-24  4.616E-15
6.546E+01  2.578E-24  4.477E-15
6.486E+01  2.522E-24  4.339E-15
6.427E+01  2.466E-24  4.204E-15
6.368E+01  2.410E-24  4.070E-15
6.310E+01  2.354E-24  3.939E-15
6.252E+01  2.298E-24  3.811E-15
6.194E+01  2.243E-24  3.685E-15
6.138E+01  2.187E-24  3.561E-15
6.081E+01  2.133E-24  3.440E-15
6.026E+01  2.078E-24  3.321E-15
5.970E+01  2.024E-24  3.205E-15
5.916E+01  1.970E-24  3.092E-15
5.861E+01  1.917E-24  2.980E-15
5.808E+01  1.864E-24  2.872E-15
5.754E+01  1.812E-24  2.766E-15
5.702E+01  1.761E-24  2.663E-15
5.649E+01  1.710E-24  2.563E-15
5.598E+01  1.661E-24  2.466E-15
5.546E+01  1.612E-24  2.371E-15
5.495E+01  1.564E-24  2.280E-15
5.445E+01  1.517E-24  2.191E-15
5.395E+01  1.471E-24  2.105E-15
5.346E+01  1.426E-24  2.022E-15
5.297E+01  1.382E-24  1.941E-15
5.248E+01  1.338E-24  1.863E-15
5.200E+01  1.296E-24  1.788E-15
5.152E+01  1.255E-24  1.715E-15
5.105E+01  1.215E-24  1.645E-15
5.058E+01  1.176E-24  1.578E-15
5.012E+01  1.138E-24  1.513E-15
4.966E+01  1.101E-24  1.450E-15
