Dust emission from Draine & Li (2007): ApJ 657, 810-837
================================================================
        10 = grain model
 4.000E-08 4.000E-01 5.000E-06 = a_01 (cm) , sigma_1 , b_C1/0.92
 2.500E-07 4.000E-01 5.000E-06 = a_02 (cm) , sigma_2 , b_C2/0.92
 2.500E+01 2.500E+01 1.000E+00 = Umin , Umax, beta (dN/dU propto U^{-beta})
 2.500E+01 = <U> 
     mmp83 = radfield
 2.613E-23 = power/H (erg s-1)
 band   nu*P_nu(band) j_nu(band)
 (um)   (erg s-1 H-1)(Jy cm2 sr-1 H-1)
1.270E+00  7.270E-26  2.449E-18 COBE-DIRBE
2.220E+00  9.747E-26  5.740E-18 COBE-DIRBE
3.530E+00  5.131E-25  4.804E-17 COBE-DIRBE
4.880E+00  2.470E-25  3.198E-17 COBE-DIRBE
1.229E+01  2.474E-24  8.065E-16 COBE-DIRBE
2.079E+01  2.969E-24  1.637E-15 COBE-DIRBE
5.599E+01  1.340E-23  1.990E-14 COBE-DIRBE
9.770E+01  1.455E-23  3.770E-14 COBE-DIRBE
1.479E+02  7.437E-24  2.918E-14 COBE-DIRBE
2.479E+02  1.651E-24  1.085E-14 COBE-DIRBE
1.200E+01  2.496E-24  7.943E-16 IRAS
2.500E+01  3.074E-24  2.039E-15 IRAS
6.000E+01  1.405E-23  2.236E-14 IRAS
1.000E+02  1.422E-23  3.771E-14 IRAS
3.550E+00  5.928E-25  5.582E-17 SST-IRAC
4.493E+00  1.809E-25  2.156E-17 SST-IRAC
5.731E+00  1.343E-24  2.042E-16 SST-IRAC
7.872E+00  3.251E-24  6.788E-16 SST-IRAC
2.368E+01  2.818E-24  1.770E-15 SST-MIPS
7.142E+01  1.503E-23  2.847E-14 SST-MIPS
1.559E+02  6.040E-24  2.498E-14 SST-MIPS
1.600E+01  2.387E-24  1.013E-15 SST-IRSPU
2.200E+01  2.891E-24  1.687E-15 SST-IRSPU











lambda    nu*dP/dnu     j_nu
 (um)   (erg s-1 H-1)(Jy cm2 sr-1 H-1)
1.000E+04  3.161E-31  8.385E-20
9.908E+03  3.277E-31  8.612E-20
9.817E+03  3.396E-31  8.844E-20
9.727E+03  3.520E-31  9.083E-20
9.638E+03  3.648E-31  9.328E-20
9.550E+03  3.782E-31  9.579E-20
9.462E+03  3.919E-31  9.838E-20
9.376E+03  4.062E-31  1.010E-19
9.290E+03  4.211E-31  1.038E-19
9.204E+03  4.364E-31  1.066E-19
9.120E+03  4.524E-31  1.094E-19
9.036E+03  4.689E-31  1.124E-19
8.954E+03  4.859E-31  1.154E-19
8.872E+03  5.035E-31  1.185E-19
8.790E+03  5.218E-31  1.217E-19
8.710E+03  5.408E-31  1.249E-19
8.630E+03  5.604E-31  1.283E-19
8.551E+03  5.808E-31  1.317E-19
8.472E+03  6.019E-31  1.353E-19
8.395E+03  6.238E-31  1.389E-19
8.318E+03  6.466E-31  1.427E-19
8.241E+03  6.701E-31  1.465E-19
8.166E+03  6.946E-31  1.504E-19
8.091E+03  7.199E-31  1.545E-19
8.017E+03  7.462E-31  1.587E-19
7.943E+03  7.735E-31  1.630E-19
7.870E+03  8.018E-31  1.674E-19
7.798E+03  8.311E-31  1.719E-19
7.727E+03  8.615E-31  1.766E-19
7.656E+03  8.931E-31  1.814E-19
7.586E+03  9.258E-31  1.863E-19
7.516E+03  9.598E-31  1.914E-19
7.447E+03  9.950E-31  1.966E-19
7.379E+03  1.032E-30  2.019E-19
7.311E+03  1.069E-30  2.074E-19
7.244E+03  1.109E-30  2.131E-19
7.178E+03  1.150E-30  2.189E-19
7.112E+03  1.192E-30  2.249E-19
7.047E+03  1.236E-30  2.310E-19
6.982E+03  1.281E-30  2.373E-19
6.918E+03  1.328E-30  2.438E-19
6.855E+03  1.377E-30  2.504E-19
6.792E+03  1.428E-30  2.573E-19
6.730E+03  1.481E-30  2.643E-19
6.668E+03  1.535E-30  2.716E-19
6.607E+03  1.592E-30  2.790E-19
6.546E+03  1.651E-30  2.867E-19
6.486E+03  1.712E-30  2.945E-19
6.427E+03  1.775E-30  3.026E-19
6.368E+03  1.841E-30  3.109E-19
6.310E+03  1.909E-30  3.195E-19
6.252E+03  1.980E-30  3.283E-19
6.194E+03  2.053E-30  3.374E-19
6.138E+03  2.129E-30  3.467E-19
6.081E+03  2.208E-30  3.562E-19
6.026E+03  2.290E-30  3.661E-19
5.970E+03  2.376E-30  3.762E-19
5.916E+03  2.464E-30  3.866E-19
5.861E+03  2.556E-30  3.974E-19
5.808E+03  2.651E-30  4.084E-19
5.754E+03  2.750E-30  4.197E-19
5.702E+03  2.852E-30  4.314E-19
5.649E+03  2.959E-30  4.434E-19
5.598E+03  3.069E-30  4.557E-19
5.546E+03  3.184E-30  4.684E-19
5.495E+03  3.303E-30  4.814E-19
5.445E+03  3.426E-30  4.949E-19
5.395E+03  3.554E-30  5.087E-19
5.346E+03  3.688E-30  5.229E-19
5.297E+03  3.826E-30  5.375E-19
5.248E+03  3.969E-30  5.525E-19
5.200E+03  4.118E-30  5.680E-19
5.152E+03  4.272E-30  5.839E-19
5.105E+03  4.433E-30  6.003E-19
5.058E+03  4.599E-30  6.171E-19
5.012E+03  4.772E-30  6.344E-19
4.966E+03  4.952E-30  6.523E-19
4.920E+03  5.138E-30  6.706E-19
4.875E+03  5.331E-30  6.894E-19
4.831E+03  5.532E-30  7.088E-19
4.786E+03  5.740E-30  7.288E-19
4.742E+03  5.957E-30  7.493E-19
4.699E+03  6.181E-30  7.704E-19
4.656E+03  6.415E-30  7.922E-19
4.613E+03  6.657E-30  8.146E-19
4.571E+03  6.908E-30  8.376E-19
4.529E+03  7.170E-30  8.613E-19
4.487E+03  7.441E-30  8.857E-19
4.446E+03  7.723E-30  9.109E-19
4.406E+03  8.016E-30  9.367E-19
4.365E+03  8.320E-30  9.633E-19
4.325E+03  8.635E-30  9.907E-19
4.285E+03  8.963E-30  1.019E-18
4.246E+03  9.304E-30  1.048E-18
4.207E+03  9.657E-30  1.078E-18
4.169E+03  1.002E-29  1.108E-18
4.130E+03  1.041E-29  1.140E-18
4.093E+03  1.080E-29  1.173E-18
4.055E+03  1.121E-29  1.206E-18
4.018E+03  1.164E-29  1.241E-18
3.981E+03  1.209E-29  1.276E-18
3.945E+03  1.255E-29  1.313E-18
3.908E+03  1.302E-29  1.350E-18
3.873E+03  1.352E-29  1.389E-18
3.837E+03  1.404E-29  1.429E-18
3.802E+03  1.457E-29  1.470E-18
3.767E+03  1.513E-29  1.512E-18
3.733E+03  1.571E-29  1.555E-18
3.698E+03  1.631E-29  1.600E-18
3.664E+03  1.694E-29  1.646E-18
3.631E+03  1.759E-29  1.694E-18
3.597E+03  1.826E-29  1.743E-18
3.565E+03  1.896E-29  1.793E-18
3.532E+03  1.969E-29  1.845E-18
3.499E+03  2.045E-29  1.898E-18
3.467E+03  2.124E-29  1.953E-18
3.436E+03  2.205E-29  2.010E-18
3.404E+03  2.290E-29  2.068E-18
3.373E+03  2.379E-29  2.128E-18
3.342E+03  2.471E-29  2.190E-18
3.311E+03  2.566E-29  2.254E-18
3.281E+03  2.665E-29  2.320E-18
3.251E+03  2.768E-29  2.387E-18
3.221E+03  2.876E-29  2.457E-18
3.192E+03  2.987E-29  2.529E-18
3.162E+03  3.103E-29  2.603E-18
3.133E+03  3.223E-29  2.679E-18
3.105E+03  3.348E-29  2.757E-18
3.076E+03  3.478E-29  2.838E-18
3.048E+03  3.613E-29  2.921E-18
3.020E+03  3.754E-29  3.007E-18
2.992E+03  3.899E-29  3.095E-18
2.965E+03  4.051E-29  3.186E-18
2.938E+03  4.208E-29  3.279E-18
2.911E+03  4.371E-29  3.375E-18
2.884E+03  4.541E-29  3.474E-18
2.858E+03  4.718E-29  3.576E-18
2.831E+03  4.902E-29  3.681E-18
2.805E+03  5.092E-29  3.790E-18
2.780E+03  5.291E-29  3.901E-18
2.754E+03  5.497E-29  4.016E-18
2.729E+03  5.712E-29  4.135E-18
2.704E+03  5.935E-29  4.257E-18
2.679E+03  6.167E-29  4.383E-18
2.655E+03  6.408E-29  4.512E-18
2.630E+03  6.659E-29  4.646E-18
2.606E+03  6.920E-29  4.784E-18
2.582E+03  7.191E-29  4.926E-18
2.559E+03  7.473E-29  5.072E-18
2.535E+03  7.766E-29  5.223E-18
2.512E+03  8.071E-29  5.378E-18
2.489E+03  8.389E-29  5.538E-18
2.466E+03  8.718E-29  5.703E-18
2.443E+03  9.061E-29  5.873E-18
2.421E+03  9.418E-29  6.048E-18
2.399E+03  9.789E-29  6.229E-18
2.377E+03  1.017E-28  6.415E-18
2.355E+03  1.058E-28  6.607E-18
2.333E+03  1.099E-28  6.804E-18
2.312E+03  1.143E-28  7.008E-18
2.291E+03  1.188E-28  7.218E-18
2.270E+03  1.235E-28  7.435E-18
2.249E+03  1.284E-28  7.658E-18
2.228E+03  1.334E-28  7.888E-18
2.208E+03  1.387E-28  8.125E-18
2.188E+03  1.442E-28  8.369E-18
2.168E+03  1.499E-28  8.621E-18
2.148E+03  1.559E-28  8.880E-18
2.128E+03  1.620E-28  9.148E-18
2.109E+03  1.685E-28  9.423E-18
2.089E+03  1.752E-28  9.707E-18
2.070E+03  1.821E-28  1.000E-17
2.051E+03  1.893E-28  1.030E-17
2.032E+03  1.969E-28  1.061E-17
2.014E+03  2.047E-28  1.093E-17
1.995E+03  2.128E-28  1.126E-17
1.977E+03  2.213E-28  1.161E-17
1.959E+03  2.301E-28  1.196E-17
1.941E+03  2.393E-28  1.232E-17
1.923E+03  2.488E-28  1.269E-17
1.905E+03  2.587E-28  1.308E-17
1.888E+03  2.690E-28  1.347E-17
1.871E+03  2.797E-28  1.388E-17
1.854E+03  2.909E-28  1.430E-17
1.837E+03  3.025E-28  1.474E-17
1.820E+03  3.145E-28  1.518E-17
1.803E+03  3.271E-28  1.564E-17
1.786E+03  3.402E-28  1.612E-17
1.770E+03  3.538E-28  1.661E-17
1.754E+03  3.679E-28  1.712E-17
1.738E+03  3.826E-28  1.764E-17
1.722E+03  3.979E-28  1.817E-17
1.706E+03  4.138E-28  1.873E-17
1.690E+03  4.304E-28  1.930E-17
1.675E+03  4.476E-28  1.989E-17
1.660E+03  4.655E-28  2.049E-17
1.644E+03  4.842E-28  2.112E-17
1.629E+03  5.036E-28  2.176E-17
1.614E+03  5.237E-28  2.243E-17
1.600E+03  5.447E-28  2.311E-17
1.585E+03  5.666E-28  2.382E-17
1.570E+03  5.893E-28  2.455E-17
1.556E+03  6.129E-28  2.530E-17
1.542E+03  6.375E-28  2.607E-17
1.528E+03  6.630E-28  2.687E-17
1.514E+03  6.896E-28  2.769E-17
1.500E+03  7.173E-28  2.853E-17
1.486E+03  7.461E-28  2.941E-17
1.472E+03  7.760E-28  3.031E-17
1.459E+03  8.072E-28  3.124E-17
1.445E+03  8.397E-28  3.219E-17
1.432E+03  8.734E-28  3.318E-17
1.419E+03  9.085E-28  3.420E-17
1.406E+03  9.450E-28  3.525E-17
1.393E+03  9.830E-28  3.633E-17
1.380E+03  1.023E-27  3.744E-17
1.368E+03  1.064E-27  3.859E-17
1.355E+03  1.106E-27  3.977E-17
1.343E+03  1.151E-27  4.100E-17
1.330E+03  1.197E-27  4.225E-17
1.318E+03  1.245E-27  4.355E-17
1.306E+03  1.296E-27  4.489E-17
1.294E+03  1.348E-27  4.626E-17
1.282E+03  1.402E-27  4.768E-17
1.271E+03  1.458E-27  4.915E-17
1.259E+03  1.517E-27  5.066E-17
1.247E+03  1.578E-27  5.221E-17
1.236E+03  1.641E-27  5.381E-17
1.225E+03  1.707E-27  5.546E-17
1.213E+03  1.776E-27  5.716E-17
1.202E+03  1.847E-27  5.892E-17
1.191E+03  1.922E-27  6.072E-17
1.180E+03  1.999E-27  6.259E-17
1.169E+03  2.079E-27  6.450E-17
1.159E+03  2.163E-27  6.648E-17
1.148E+03  2.250E-27  6.852E-17
1.138E+03  2.340E-27  7.062E-17
1.127E+03  2.434E-27  7.278E-17
1.117E+03  2.532E-27  7.501E-17
1.107E+03  2.634E-27  7.731E-17
1.096E+03  2.739E-27  7.967E-17
1.086E+03  2.849E-27  8.211E-17
1.076E+03  2.964E-27  8.462E-17
1.067E+03  3.082E-27  8.721E-17
1.057E+03  3.206E-27  8.988E-17
1.047E+03  3.335E-27  9.262E-17
1.038E+03  3.468E-27  9.545E-17
1.028E+03  3.607E-27  9.836E-17
1.019E+03  3.752E-27  1.014E-16
1.009E+03  3.902E-27  1.045E-16
1.000E+03  4.058E-27  1.076E-16
9.908E+02  4.220E-27  1.109E-16
9.817E+02  4.390E-27  1.143E-16
9.727E+02  4.565E-27  1.178E-16
9.638E+02  4.748E-27  1.214E-16
9.550E+02  4.938E-27  1.251E-16
9.462E+02  5.136E-27  1.289E-16
9.376E+02  5.341E-27  1.328E-16
9.290E+02  5.555E-27  1.369E-16
9.204E+02  5.777E-27  1.410E-16
9.120E+02  6.008E-27  1.453E-16
9.036E+02  6.247E-27  1.498E-16
8.954E+02  6.497E-27  1.543E-16
8.872E+02  6.755E-27  1.590E-16
8.790E+02  7.024E-27  1.638E-16
8.710E+02  7.304E-27  1.687E-16
8.630E+02  7.594E-27  1.738E-16
8.551E+02  7.896E-27  1.791E-16
8.472E+02  8.210E-27  1.845E-16
8.395E+02  8.535E-27  1.901E-16
8.318E+02  8.874E-27  1.958E-16
8.241E+02  9.225E-27  2.017E-16
8.166E+02  9.590E-27  2.077E-16
8.091E+02  9.970E-27  2.140E-16
8.017E+02  1.036E-26  2.204E-16
7.943E+02  1.077E-26  2.270E-16
7.870E+02  1.120E-26  2.338E-16
7.798E+02  1.164E-26  2.408E-16
7.727E+02  1.210E-26  2.480E-16
7.656E+02  1.258E-26  2.554E-16
7.586E+02  1.307E-26  2.630E-16
7.516E+02  1.359E-26  2.709E-16
7.447E+02  1.412E-26  2.789E-16
7.379E+02  1.468E-26  2.873E-16
7.311E+02  1.526E-26  2.959E-16
7.244E+02  1.586E-26  3.047E-16
7.178E+02  1.648E-26  3.138E-16
7.112E+02  1.713E-26  3.232E-16
7.047E+02  1.781E-26  3.329E-16
6.982E+02  1.851E-26  3.428E-16
6.918E+02  1.924E-26  3.531E-16
6.855E+02  2.000E-26  3.636E-16
6.792E+02  2.079E-26  3.745E-16
6.730E+02  2.160E-26  3.856E-16
6.668E+02  2.245E-26  3.971E-16
6.607E+02  2.333E-26  4.089E-16
6.546E+02  2.425E-26  4.211E-16
6.486E+02  2.521E-26  4.337E-16
6.427E+02  2.621E-26  4.468E-16
6.368E+02  2.724E-26  4.602E-16
6.310E+02  2.832E-26  4.739E-16
6.252E+02  2.944E-26  4.882E-16
6.194E+02  3.060E-26  5.028E-16
6.138E+02  3.181E-26  5.179E-16
6.081E+02  3.307E-26  5.334E-16
6.026E+02  3.438E-26  5.494E-16
5.970E+02  3.574E-26  5.659E-16
5.916E+02  3.715E-26  5.829E-16
5.861E+02  3.862E-26  6.004E-16
5.808E+02  4.015E-26  6.185E-16
5.754E+02  4.174E-26  6.371E-16
5.702E+02  4.339E-26  6.562E-16
5.649E+02  4.511E-26  6.759E-16
5.598E+02  4.689E-26  6.963E-16
5.546E+02  4.875E-26  7.172E-16
5.495E+02  5.068E-26  7.388E-16
5.445E+02  5.269E-26  7.610E-16
5.395E+02  5.478E-26  7.839E-16
5.346E+02  5.695E-26  8.075E-16
5.297E+02  5.921E-26  8.318E-16
5.248E+02  6.155E-26  8.569E-16
5.200E+02  6.399E-26  8.827E-16
5.152E+02  6.653E-26  9.093E-16
5.105E+02  6.917E-26  9.367E-16
5.058E+02  7.191E-26  9.649E-16
5.012E+02  7.476E-26  9.939E-16
4.966E+02  7.773E-26  1.024E-15
4.920E+02  8.081E-26  1.055E-15
4.875E+02  8.401E-26  1.086E-15
4.831E+02  8.734E-26  1.119E-15
4.786E+02  9.080E-26  1.153E-15
4.742E+02  9.440E-26  1.188E-15
4.699E+02  9.814E-26  1.223E-15
4.656E+02  1.020E-25  1.260E-15
4.613E+02  1.061E-25  1.298E-15
4.571E+02  1.103E-25  1.337E-15
4.529E+02  1.146E-25  1.377E-15
4.487E+02  1.192E-25  1.419E-15
4.446E+02  1.239E-25  1.461E-15
4.406E+02  1.288E-25  1.505E-15
4.365E+02  1.339E-25  1.550E-15
4.325E+02  1.392E-25  1.597E-15
4.285E+02  1.447E-25  1.645E-15
4.246E+02  1.504E-25  1.694E-15
4.207E+02  1.563E-25  1.745E-15
4.169E+02  1.625E-25  1.797E-15
4.130E+02  1.689E-25  1.851E-15
4.093E+02  1.756E-25  1.906E-15
4.055E+02  1.825E-25  1.963E-15
4.018E+02  1.897E-25  2.022E-15
3.981E+02  1.972E-25  2.083E-15
3.945E+02  2.050E-25  2.145E-15
3.908E+02  2.131E-25  2.209E-15
3.873E+02  2.215E-25  2.275E-15
3.837E+02  2.302E-25  2.343E-15
3.802E+02  2.393E-25  2.413E-15
3.767E+02  2.487E-25  2.485E-15
3.733E+02  2.585E-25  2.559E-15
3.698E+02  2.687E-25  2.636E-15
3.664E+02  2.792E-25  2.714E-15
3.631E+02  2.902E-25  2.795E-15
3.597E+02  3.016E-25  2.878E-15
3.565E+02  3.134E-25  2.964E-15
3.532E+02  3.257E-25  3.051E-15
3.499E+02  3.385E-25  3.142E-15
3.467E+02  3.517E-25  3.235E-15
3.436E+02  3.655E-25  3.331E-15
3.404E+02  3.798E-25  3.429E-15
3.373E+02  3.946E-25  3.530E-15
3.342E+02  4.100E-25  3.635E-15
3.311E+02  4.260E-25  3.742E-15
3.281E+02  4.425E-25  3.851E-15
3.251E+02  4.597E-25  3.965E-15
3.221E+02  4.776E-25  4.081E-15
3.192E+02  4.961E-25  4.200E-15
3.162E+02  5.154E-25  4.323E-15
3.133E+02  5.353E-25  4.449E-15
3.105E+02  5.560E-25  4.579E-15
3.076E+02  5.775E-25  4.712E-15
3.048E+02  5.997E-25  4.849E-15
3.020E+02  6.228E-25  4.989E-15
2.992E+02  6.468E-25  5.134E-15
2.965E+02  6.716E-25  5.282E-15
2.938E+02  6.974E-25  5.434E-15
2.911E+02  7.241E-25  5.591E-15
2.884E+02  7.517E-25  5.751E-15
2.858E+02  7.804E-25  5.916E-15
2.831E+02  8.102E-25  6.085E-15
2.805E+02  8.410E-25  6.258E-15
2.780E+02  8.729E-25  6.436E-15
2.754E+02  9.060E-25  6.619E-15
2.729E+02  9.403E-25  6.807E-15
2.704E+02  9.760E-25  7.001E-15
2.679E+02  1.013E-24  7.199E-15
2.655E+02  1.051E-24  7.403E-15
2.630E+02  1.091E-24  7.613E-15
2.606E+02  1.132E-24  7.827E-15
2.582E+02  1.175E-24  8.047E-15
2.559E+02  1.219E-24  8.271E-15
2.535E+02  1.264E-24  8.499E-15
2.512E+02  1.310E-24  8.732E-15
2.489E+02  1.358E-24  8.963E-15
2.466E+02  1.405E-24  9.193E-15
2.443E+02  1.454E-24  9.427E-15
2.421E+02  1.505E-24  9.662E-15
2.399E+02  1.556E-24  9.900E-15
2.377E+02  1.608E-24  1.014E-14
2.355E+02  1.661E-24  1.038E-14
2.333E+02  1.716E-24  1.062E-14
2.312E+02  1.773E-24  1.087E-14
2.291E+02  1.831E-24  1.113E-14
2.270E+02  1.891E-24  1.138E-14
2.249E+02  1.952E-24  1.165E-14
2.228E+02  2.015E-24  1.191E-14
2.208E+02  2.080E-24  1.218E-14
2.188E+02  2.147E-24  1.246E-14
2.168E+02  2.215E-24  1.274E-14
2.148E+02  2.286E-24  1.302E-14
2.128E+02  2.358E-24  1.331E-14
2.109E+02  2.432E-24  1.360E-14
2.089E+02  2.508E-24  1.390E-14
2.070E+02  2.586E-24  1.420E-14
2.051E+02  2.666E-24  1.451E-14
2.032E+02  2.748E-24  1.482E-14
2.014E+02  2.832E-24  1.513E-14
1.995E+02  2.918E-24  1.545E-14
1.977E+02  3.007E-24  1.577E-14
1.959E+02  3.097E-24  1.609E-14
1.941E+02  3.190E-24  1.642E-14
1.923E+02  3.284E-24  1.675E-14
1.905E+02  3.381E-24  1.709E-14
1.888E+02  3.481E-24  1.743E-14
1.871E+02  3.582E-24  1.778E-14
1.854E+02  3.686E-24  1.812E-14
1.837E+02  3.792E-24  1.847E-14
1.820E+02  3.901E-24  1.883E-14
1.803E+02  4.012E-24  1.919E-14
1.786E+02  4.126E-24  1.955E-14
1.770E+02  4.241E-24  1.991E-14
1.754E+02  4.360E-24  2.028E-14
1.738E+02  4.481E-24  2.066E-14
1.722E+02  4.605E-24  2.103E-14
1.706E+02  4.731E-24  2.141E-14
1.690E+02  4.860E-24  2.179E-14
1.675E+02  4.992E-24  2.218E-14
1.660E+02  5.126E-24  2.257E-14
1.644E+02  5.264E-24  2.296E-14
1.629E+02  5.404E-24  2.336E-14
1.614E+02  5.548E-24  2.376E-14
1.600E+02  5.695E-24  2.416E-14
1.585E+02  5.845E-24  2.457E-14
1.570E+02  5.998E-24  2.499E-14
1.556E+02  6.155E-24  2.540E-14
1.542E+02  6.316E-24  2.583E-14
1.528E+02  6.481E-24  2.626E-14
1.514E+02  6.650E-24  2.670E-14
1.500E+02  6.823E-24  2.714E-14
1.486E+02  7.001E-24  2.759E-14
1.472E+02  7.183E-24  2.805E-14
1.459E+02  7.369E-24  2.852E-14
1.445E+02  7.559E-24  2.898E-14
1.432E+02  7.750E-24  2.944E-14
1.419E+02  7.940E-24  2.989E-14
1.406E+02  8.128E-24  3.031E-14
1.393E+02  8.309E-24  3.071E-14
1.380E+02  8.483E-24  3.106E-14
1.368E+02  8.649E-24  3.138E-14
1.355E+02  8.809E-24  3.167E-14
1.343E+02  8.966E-24  3.193E-14
1.330E+02  9.120E-24  3.219E-14
1.318E+02  9.275E-24  3.243E-14
1.306E+02  9.432E-24  3.268E-14
1.294E+02  9.591E-24  3.293E-14
1.282E+02  9.753E-24  3.317E-14
1.271E+02  9.916E-24  3.342E-14
1.259E+02  1.008E-23  3.367E-14
1.247E+02  1.025E-23  3.392E-14
1.236E+02  1.042E-23  3.417E-14
1.225E+02  1.060E-23  3.442E-14
1.213E+02  1.077E-23  3.467E-14
1.202E+02  1.095E-23  3.491E-14
1.191E+02  1.112E-23  3.515E-14
1.180E+02  1.130E-23  3.538E-14
1.169E+02  1.148E-23  3.561E-14
1.159E+02  1.166E-23  3.583E-14
1.148E+02  1.183E-23  3.604E-14
1.138E+02  1.201E-23  3.625E-14
1.127E+02  1.219E-23  3.645E-14
1.117E+02  1.237E-23  3.664E-14
1.107E+02  1.255E-23  3.683E-14
1.096E+02  1.273E-23  3.701E-14
1.086E+02  1.290E-23  3.718E-14
1.076E+02  1.308E-23  3.735E-14
1.067E+02  1.326E-23  3.750E-14
1.057E+02  1.343E-23  3.765E-14
1.047E+02  1.360E-23  3.778E-14
1.038E+02  1.377E-23  3.791E-14
1.028E+02  1.394E-23  3.802E-14
1.019E+02  1.411E-23  3.811E-14
1.009E+02  1.427E-23  3.820E-14
1.000E+02  1.443E-23  3.827E-14
9.908E+01  1.458E-23  3.833E-14
9.817E+01  1.474E-23  3.838E-14
9.727E+01  1.489E-23  3.841E-14
9.638E+01  1.503E-23  3.844E-14
9.550E+01  1.518E-23  3.845E-14
9.462E+01  1.532E-23  3.844E-14
9.376E+01  1.545E-23  3.843E-14
9.290E+01  1.558E-23  3.840E-14
9.204E+01  1.571E-23  3.835E-14
9.120E+01  1.583E-23  3.829E-14
9.036E+01  1.595E-23  3.822E-14
8.954E+01  1.606E-23  3.814E-14
8.872E+01  1.616E-23  3.804E-14
8.790E+01  1.627E-23  3.793E-14
8.710E+01  1.637E-23  3.781E-14
8.630E+01  1.646E-23  3.767E-14
8.551E+01  1.655E-23  3.753E-14
8.472E+01  1.662E-23  3.736E-14
8.395E+01  1.670E-23  3.718E-14
8.318E+01  1.677E-23  3.699E-14
8.241E+01  1.683E-23  3.679E-14
8.166E+01  1.689E-23  3.658E-14
8.091E+01  1.694E-23  3.635E-14
8.017E+01  1.698E-23  3.611E-14
7.943E+01  1.702E-23  3.586E-14
7.870E+01  1.705E-23  3.560E-14
7.798E+01  1.707E-23  3.532E-14
7.727E+01  1.709E-23  3.503E-14
7.656E+01  1.710E-23  3.473E-14
7.586E+01  1.711E-23  3.442E-14
7.516E+01  1.710E-23  3.410E-14
7.447E+01  1.709E-23  3.377E-14
7.379E+01  1.707E-23  3.342E-14
7.311E+01  1.705E-23  3.307E-14
7.244E+01  1.702E-23  3.270E-14
7.178E+01  1.698E-23  3.232E-14
7.112E+01  1.693E-23  3.194E-14
7.047E+01  1.688E-23  3.156E-14
6.982E+01  1.683E-23  3.117E-14
6.918E+01  1.676E-23  3.077E-14
6.855E+01  1.669E-23  3.036E-14
6.792E+01  1.662E-23  2.994E-14
6.730E+01  1.653E-23  2.951E-14
6.668E+01  1.644E-23  2.909E-14
6.607E+01  1.635E-23  2.866E-14
6.546E+01  1.625E-23  2.822E-14
6.486E+01  1.615E-23  2.778E-14
6.427E+01  1.603E-23  2.733E-14
6.368E+01  1.592E-23  2.689E-14
6.310E+01  1.580E-23  2.644E-14
6.252E+01  1.567E-23  2.599E-14
6.194E+01  1.554E-23  2.554E-14
6.138E+01  1.541E-23  2.508E-14
6.081E+01  1.527E-23  2.463E-14
6.026E+01  1.513E-23  2.418E-14
5.970E+01  1.498E-23  2.372E-14
5.916E+01  1.483E-23  2.327E-14
5.861E+01  1.468E-23  2.282E-14
5.808E+01  1.452E-23  2.236E-14
5.754E+01  1.436E-23  2.192E-14
5.702E+01  1.419E-23  2.147E-14
5.649E+01  1.403E-23  2.102E-14
5.598E+01  1.386E-23  2.059E-14
5.546E+01  1.370E-23  2.015E-14
5.495E+01  1.353E-23  1.972E-14
5.445E+01  1.336E-23  1.929E-14
5.395E+01  1.319E-23  1.887E-14
5.346E+01  1.301E-23  1.845E-14
5.297E+01  1.284E-23  1.804E-14
5.248E+01  1.267E-23  1.763E-14
5.200E+01  1.249E-23  1.723E-14
5.152E+01  1.232E-23  1.684E-14
5.105E+01  1.214E-23  1.645E-14
5.058E+01  1.197E-23  1.606E-14
5.012E+01  1.180E-23  1.568E-14
4.966E+01  1.163E-23  1.531E-14
