Dust emission from Draine & Li (2007): ApJ 657, 810-837
==========================================================
         2 = grain model
 4.000E-08 4.000E-01 7.500E-06 = a_01 (cm) , sigma_1 , b_C1/0.92
 2.000E-07 5.500E-01 2.500E-06 = a_02 (cm) , sigma_2 , b_C2/0.92
 1.000E+04 1.000E+04 1.000E+00 = Umin , Umax, beta (dN/dU propto U^{-beta})
 1.000E+04 = <U> 
     mmp83 = radfield
 4.418E-20 = power/H (erg s-1)
 band   nu*P_nu(band) j_nu(band)
 (um)   (erg s-1 H-1)(Jy cm2 sr-1 H-1)
1.270E+00  4.177E-23  1.407E-15 COBE-DIRBE
2.220E+00  5.242E-23  3.087E-15 COBE-DIRBE
3.530E+00  3.471E-22  3.250E-14 COBE-DIRBE
4.880E+00  1.659E-22  2.148E-14 COBE-DIRBE
1.229E+01  4.512E-21  1.471E-12 COBE-DIRBE
2.079E+01  1.735E-20  9.567E-12 COBE-DIRBE
5.599E+01  1.566E-20  2.326E-11 COBE-DIRBE
9.770E+01  1.981E-21  5.134E-12 COBE-DIRBE
1.479E+02  3.744E-22  1.469E-12 COBE-DIRBE
2.479E+02  3.964E-23  2.606E-13 COBE-DIRBE
1.200E+01  4.202E-21  1.338E-12 IRAS
2.500E+01  2.546E-20  1.688E-11 IRAS
6.000E+01  1.403E-20  2.233E-11 IRAS
1.000E+02  1.748E-21  4.637E-12 IRAS
3.550E+00  4.037E-22  3.801E-14 SST-IRAC
4.493E+00  1.167E-22  1.390E-14 SST-IRAC
5.731E+00  1.178E-21  1.791E-13 SST-IRAC
7.872E+00  4.601E-21  9.607E-13 SST-IRAC
2.368E+01  2.441E-20  1.533E-11 SST-MIPS
7.142E+01  5.721E-21  1.084E-11 SST-MIPS
1.559E+02  2.505E-22  1.036E-12 SST-MIPS
1.600E+01  7.144E-21  3.032E-12 SST-IRSPU
2.200E+01  2.240E-20  1.307E-11 SST-IRSPU
7.500E+01  4.937E-21  9.822E-12 Herschel-PACS
1.100E+02  1.169E-21  3.410E-12 Herschel-PACS
1.700E+02  1.943E-22  8.764E-13 Herschel-PACS
2.500E+02  3.030E-23  2.009E-13 Herschel-SPIRE
3.600E+02  5.221E-24  4.986E-14 Herschel-SPIRE
5.200E+02  9.476E-25  1.307E-14 Herschel-SPIRE
2.400E+00  5.887E-23  3.748E-15 Akari IRC NIR N2
3.200E+00  2.665E-22  2.262E-14 Akari IRC NIR N3
4.100E+00  1.275E-22  1.386E-14 Akari IRC NIR N4
7.000E+00  4.854E-21  9.012E-13 Akari IRC MIR-S S7
9.000E+00  3.899E-21  9.308E-13 Akari IRC MIR-S S9W
1.100E+01  3.702E-21  1.080E-12 Akari IRC MIR-S S11
1.500E+01  7.694E-21  3.061E-12 Akari IRC MIR-L L15
1.800E+01  1.428E-20  6.818E-12 Akari IRC MIR-L L18W
2.400E+01  2.308E-20  1.469E-11 Akari IRC MIR-L L24
6.500E+01  8.281E-21  1.428E-11 Akari FIS N60
8.000E+01  3.716E-21  7.885E-12 Akari FIS WIDE-S
1.400E+02  3.611E-22  1.341E-12 Akari FIS WIDE-L
1.600E+02  2.151E-22  9.129E-13 Akari FIS N160
 
 
 
 


lambda    nu*dP/dnu     j_nu
 (um)   (erg s-1 H-1)(Jy cm2 sr-1 H-1)
1.000E+04  2.522E-30  6.691E-19
9.908E+03  2.616E-30  6.875E-19
9.817E+03  2.712E-30  7.063E-19
9.727E+03  2.812E-30  7.256E-19
9.638E+03  2.916E-30  7.455E-19
9.550E+03  3.024E-30  7.660E-19
9.462E+03  3.135E-30  7.870E-19
9.376E+03  3.251E-30  8.086E-19
9.290E+03  3.371E-30  8.307E-19
9.204E+03  3.496E-30  8.535E-19
9.120E+03  3.625E-30  8.770E-19
9.036E+03  3.759E-30  9.010E-19
8.954E+03  3.897E-30  9.257E-19
8.872E+03  4.041E-30  9.509E-19
8.790E+03  4.189E-30  9.768E-19
8.710E+03  4.344E-30  1.003E-18
8.630E+03  4.504E-30  1.031E-18
8.551E+03  4.670E-30  1.059E-18
8.472E+03  4.842E-30  1.088E-18
8.395E+03  5.020E-30  1.118E-18
8.318E+03  5.206E-30  1.149E-18
8.241E+03  5.398E-30  1.180E-18
8.166E+03  5.598E-30  1.213E-18
8.091E+03  5.805E-30  1.246E-18
8.017E+03  6.020E-30  1.280E-18
7.943E+03  6.243E-30  1.315E-18
7.870E+03  6.475E-30  1.352E-18
7.798E+03  6.715E-30  1.389E-18
7.727E+03  6.964E-30  1.427E-18
7.656E+03  7.223E-30  1.467E-18
7.586E+03  7.492E-30  1.508E-18
7.516E+03  7.771E-30  1.549E-18
7.447E+03  8.060E-30  1.592E-18
7.379E+03  8.360E-30  1.636E-18
7.311E+03  8.672E-30  1.682E-18
7.244E+03  8.996E-30  1.729E-18
7.178E+03  9.331E-30  1.777E-18
7.112E+03  9.680E-30  1.826E-18
7.047E+03  1.004E-29  1.877E-18
6.982E+03  1.042E-29  1.929E-18
6.918E+03  1.081E-29  1.983E-18
6.855E+03  1.121E-29  2.038E-18
6.792E+03  1.163E-29  2.095E-18
6.730E+03  1.207E-29  2.154E-18
6.668E+03  1.252E-29  2.214E-18
6.607E+03  1.299E-29  2.276E-18
6.546E+03  1.347E-29  2.340E-18
6.486E+03  1.398E-29  2.405E-18
6.427E+03  1.451E-29  2.473E-18
6.368E+03  1.505E-29  2.542E-18
6.310E+03  1.562E-29  2.614E-18
6.252E+03  1.621E-29  2.687E-18
6.194E+03  1.682E-29  2.763E-18
6.138E+03  1.745E-29  2.841E-18
6.081E+03  1.811E-29  2.921E-18
6.026E+03  1.879E-29  3.004E-18
5.970E+03  1.950E-29  3.089E-18
5.916E+03  2.024E-29  3.176E-18
5.861E+03  2.101E-29  3.266E-18
5.808E+03  2.180E-29  3.359E-18
5.754E+03  2.263E-29  3.454E-18
5.702E+03  2.349E-29  3.552E-18
5.649E+03  2.438E-29  3.653E-18
5.598E+03  2.531E-29  3.757E-18
5.546E+03  2.627E-29  3.864E-18
5.495E+03  2.727E-29  3.975E-18
5.445E+03  2.830E-29  4.088E-18
5.395E+03  2.938E-29  4.205E-18
5.346E+03  3.050E-29  4.325E-18
5.297E+03  3.166E-29  4.449E-18
5.248E+03  3.287E-29  4.576E-18
5.200E+03  3.413E-29  4.707E-18
5.152E+03  3.543E-29  4.843E-18
5.105E+03  3.679E-29  4.982E-18
5.058E+03  3.820E-29  5.125E-18
5.012E+03  3.966E-29  5.272E-18
4.966E+03  4.118E-29  5.424E-18
4.920E+03  4.275E-29  5.580E-18
4.875E+03  4.439E-29  5.741E-18
4.831E+03  4.610E-29  5.906E-18
4.786E+03  4.787E-29  6.077E-18
4.742E+03  4.971E-29  6.253E-18
4.699E+03  5.162E-29  6.434E-18
4.656E+03  5.360E-29  6.620E-18
4.613E+03  5.567E-29  6.812E-18
4.571E+03  5.781E-29  7.010E-18
4.529E+03  6.004E-29  7.213E-18
4.487E+03  6.236E-29  7.423E-18
4.446E+03  6.477E-29  7.639E-18
4.406E+03  6.728E-29  7.862E-18
4.365E+03  6.988E-29  8.091E-18
4.325E+03  7.259E-29  8.328E-18
4.285E+03  7.540E-29  8.571E-18
4.246E+03  7.832E-29  8.822E-18
4.207E+03  8.136E-29  9.080E-18
4.169E+03  8.452E-29  9.347E-18
4.130E+03  8.781E-29  9.621E-18
4.093E+03  9.123E-29  9.903E-18
4.055E+03  9.478E-29  1.019E-17
4.018E+03  9.847E-29  1.049E-17
3.981E+03  1.023E-28  1.080E-17
3.945E+03  1.063E-28  1.112E-17
3.908E+03  1.104E-28  1.145E-17
3.873E+03  1.147E-28  1.179E-17
3.837E+03  1.192E-28  1.213E-17
3.802E+03  1.239E-28  1.249E-17
3.767E+03  1.287E-28  1.286E-17
3.733E+03  1.338E-28  1.324E-17
3.698E+03  1.390E-28  1.364E-17
3.664E+03  1.445E-28  1.404E-17
3.631E+03  1.501E-28  1.446E-17
3.597E+03  1.560E-28  1.489E-17
3.565E+03  1.622E-28  1.533E-17
3.532E+03  1.685E-28  1.579E-17
3.499E+03  1.752E-28  1.626E-17
3.467E+03  1.821E-28  1.675E-17
3.436E+03  1.893E-28  1.725E-17
3.404E+03  1.967E-28  1.777E-17
3.373E+03  2.045E-28  1.830E-17
3.342E+03  2.126E-28  1.885E-17
3.311E+03  2.210E-28  1.941E-17
3.281E+03  2.298E-28  2.000E-17
3.251E+03  2.389E-28  2.060E-17
3.221E+03  2.484E-28  2.122E-17
3.192E+03  2.582E-28  2.186E-17
3.162E+03  2.685E-28  2.252E-17
3.133E+03  2.792E-28  2.320E-17
3.105E+03  2.903E-28  2.391E-17
3.076E+03  3.019E-28  2.463E-17
3.048E+03  3.139E-28  2.538E-17
3.020E+03  3.264E-28  2.615E-17
2.992E+03  3.395E-28  2.694E-17
2.965E+03  3.530E-28  2.776E-17
2.938E+03  3.671E-28  2.860E-17
2.911E+03  3.817E-28  2.947E-17
2.884E+03  3.970E-28  3.037E-17
2.858E+03  4.129E-28  3.129E-17
2.831E+03  4.294E-28  3.225E-17
2.805E+03  4.466E-28  3.323E-17
2.780E+03  4.645E-28  3.425E-17
2.754E+03  4.831E-28  3.530E-17
2.729E+03  5.025E-28  3.638E-17
2.704E+03  5.227E-28  3.749E-17
2.679E+03  5.438E-28  3.864E-17
2.655E+03  5.657E-28  3.983E-17
2.630E+03  5.885E-28  4.106E-17
2.606E+03  6.122E-28  4.232E-17
2.582E+03  6.369E-28  4.363E-17
2.559E+03  6.626E-28  4.497E-17
2.535E+03  6.894E-28  4.636E-17
2.512E+03  7.173E-28  4.780E-17
2.489E+03  7.464E-28  4.928E-17
2.466E+03  7.766E-28  5.080E-17
2.443E+03  8.081E-28  5.238E-17
2.421E+03  8.410E-28  5.401E-17
2.399E+03  8.751E-28  5.568E-17
2.377E+03  9.107E-28  5.742E-17
2.355E+03  9.478E-28  5.921E-17
2.333E+03  9.864E-28  6.105E-17
2.312E+03  1.027E-27  6.296E-17
2.291E+03  1.068E-27  6.493E-17
2.270E+03  1.112E-27  6.696E-17
2.249E+03  1.157E-27  6.905E-17
2.228E+03  1.205E-27  7.122E-17
2.208E+03  1.254E-27  7.345E-17
2.188E+03  1.305E-27  7.576E-17
2.168E+03  1.359E-27  7.814E-17
2.148E+03  1.415E-27  8.059E-17
2.128E+03  1.473E-27  8.313E-17
2.109E+03  1.533E-27  8.575E-17
2.089E+03  1.596E-27  8.845E-17
2.070E+03  1.662E-27  9.124E-17
2.051E+03  1.730E-27  9.413E-17
2.032E+03  1.801E-27  9.710E-17
2.014E+03  1.875E-27  1.002E-16
1.995E+03  1.953E-27  1.033E-16
1.977E+03  2.033E-27  1.066E-16
1.959E+03  2.117E-27  1.100E-16
1.941E+03  2.204E-27  1.135E-16
1.923E+03  2.295E-27  1.171E-16
1.905E+03  2.390E-27  1.208E-16
1.888E+03  2.489E-27  1.247E-16
1.871E+03  2.592E-27  1.286E-16
1.854E+03  2.699E-27  1.327E-16
1.837E+03  2.811E-27  1.370E-16
1.820E+03  2.928E-27  1.413E-16
1.803E+03  3.049E-27  1.458E-16
1.786E+03  3.176E-27  1.505E-16
1.770E+03  3.308E-27  1.553E-16
1.754E+03  3.445E-27  1.603E-16
1.738E+03  3.589E-27  1.654E-16
1.722E+03  3.738E-27  1.707E-16
1.706E+03  3.894E-27  1.762E-16
1.690E+03  4.056E-27  1.819E-16
1.675E+03  4.225E-27  1.877E-16
1.660E+03  4.401E-27  1.937E-16
1.644E+03  4.585E-27  2.000E-16
1.629E+03  4.776E-27  2.064E-16
1.614E+03  4.975E-27  2.131E-16
1.600E+03  5.183E-27  2.199E-16
1.585E+03  5.400E-27  2.270E-16
1.570E+03  5.626E-27  2.344E-16
1.556E+03  5.861E-27  2.419E-16
1.542E+03  6.107E-27  2.497E-16
1.528E+03  6.363E-27  2.578E-16
1.514E+03  6.629E-27  2.662E-16
1.500E+03  6.907E-27  2.748E-16
1.486E+03  7.197E-27  2.837E-16
1.472E+03  7.499E-27  2.929E-16
1.459E+03  7.815E-27  3.024E-16
1.445E+03  8.143E-27  3.122E-16
1.432E+03  8.486E-27  3.224E-16
1.419E+03  8.843E-27  3.329E-16
1.406E+03  9.215E-27  3.437E-16
1.393E+03  9.603E-27  3.549E-16
1.380E+03  1.001E-26  3.664E-16
1.368E+03  1.043E-26  3.784E-16
1.355E+03  1.087E-26  3.907E-16
1.343E+03  1.133E-26  4.035E-16
1.330E+03  1.181E-26  4.167E-16
1.318E+03  1.230E-26  4.303E-16
1.306E+03  1.282E-26  4.443E-16
1.294E+03  1.337E-26  4.589E-16
1.282E+03  1.393E-26  4.739E-16
1.271E+03  1.452E-26  4.894E-16
1.259E+03  1.513E-26  5.054E-16
1.247E+03  1.577E-26  5.220E-16
1.236E+03  1.644E-26  5.391E-16
1.225E+03  1.714E-26  5.567E-16
1.213E+03  1.786E-26  5.750E-16
1.202E+03  1.862E-26  5.938E-16
1.191E+03  1.941E-26  6.133E-16
1.180E+03  2.023E-26  6.334E-16
1.169E+03  2.109E-26  6.542E-16
1.159E+03  2.198E-26  6.757E-16
1.148E+03  2.292E-26  6.979E-16
1.138E+03  2.389E-26  7.209E-16
1.127E+03  2.490E-26  7.446E-16
1.117E+03  2.596E-26  7.691E-16
1.107E+03  2.706E-26  7.944E-16
1.096E+03  2.821E-26  8.205E-16
1.086E+03  2.941E-26  8.475E-16
1.076E+03  3.066E-26  8.754E-16
1.067E+03  3.196E-26  9.043E-16
1.057E+03  3.332E-26  9.340E-16
1.047E+03  3.474E-26  9.648E-16
1.038E+03  3.621E-26  9.966E-16
1.028E+03  3.775E-26  1.029E-15
1.019E+03  3.936E-26  1.063E-15
1.009E+03  4.103E-26  1.098E-15
1.000E+03  4.277E-26  1.135E-15
9.908E+02  4.459E-26  1.172E-15
9.817E+02  4.649E-26  1.211E-15
9.727E+02  4.848E-26  1.251E-15
9.638E+02  5.054E-26  1.292E-15
9.550E+02  5.269E-26  1.335E-15
9.462E+02  5.494E-26  1.379E-15
9.376E+02  5.728E-26  1.425E-15
9.290E+02  5.972E-26  1.472E-15
9.204E+02  6.227E-26  1.520E-15
9.120E+02  6.493E-26  1.571E-15
9.036E+02  6.769E-26  1.623E-15
8.954E+02  7.058E-26  1.676E-15
8.872E+02  7.359E-26  1.732E-15
8.790E+02  7.672E-26  1.789E-15
8.710E+02  7.999E-26  1.848E-15
8.630E+02  8.340E-26  1.909E-15
8.551E+02  8.695E-26  1.972E-15
8.472E+02  9.065E-26  2.037E-15
8.395E+02  9.452E-26  2.105E-15
8.318E+02  9.854E-26  2.174E-15
8.241E+02  1.027E-25  2.246E-15
8.166E+02  1.071E-25  2.320E-15
8.091E+02  1.117E-25  2.397E-15
8.017E+02  1.164E-25  2.476E-15
7.943E+02  1.214E-25  2.557E-15
7.870E+02  1.265E-25  2.642E-15
7.798E+02  1.319E-25  2.729E-15
7.727E+02  1.375E-25  2.819E-15
7.656E+02  1.434E-25  2.912E-15
7.586E+02  1.495E-25  3.008E-15
7.516E+02  1.559E-25  3.108E-15
7.447E+02  1.625E-25  3.210E-15
7.379E+02  1.694E-25  3.317E-15
7.311E+02  1.767E-25  3.426E-15
7.244E+02  1.842E-25  3.540E-15
7.178E+02  1.921E-25  3.658E-15
7.112E+02  2.003E-25  3.779E-15
7.047E+02  2.089E-25  3.905E-15
6.982E+02  2.178E-25  4.034E-15
6.918E+02  2.271E-25  4.168E-15
6.855E+02  2.369E-25  4.307E-15
6.792E+02  2.470E-25  4.451E-15
6.730E+02  2.576E-25  4.598E-15
6.668E+02  2.686E-25  4.751E-15
6.607E+02  2.801E-25  4.909E-15
6.546E+02  2.921E-25  5.073E-15
6.486E+02  3.047E-25  5.243E-15
6.427E+02  3.178E-25  5.419E-15
6.368E+02  3.315E-25  5.600E-15
6.310E+02  3.458E-25  5.788E-15
6.252E+02  3.608E-25  5.983E-15
6.194E+02  3.763E-25  6.184E-15
6.138E+02  3.926E-25  6.392E-15
6.081E+02  4.096E-25  6.607E-15
6.026E+02  4.273E-25  6.830E-15
5.970E+02  4.458E-25  7.061E-15
5.916E+02  4.652E-25  7.299E-15
5.861E+02  4.853E-25  7.546E-15
5.808E+02  5.064E-25  7.801E-15
5.754E+02  5.284E-25  8.065E-15
5.702E+02  5.513E-25  8.339E-15
5.649E+02  5.753E-25  8.622E-15
5.598E+02  6.004E-25  8.914E-15
5.546E+02  6.265E-25  9.217E-15
5.495E+02  6.538E-25  9.531E-15
5.445E+02  6.824E-25  9.856E-15
5.395E+02  7.122E-25  1.019E-14
5.346E+02  7.433E-25  1.054E-14
5.297E+02  7.758E-25  1.090E-14
5.248E+02  8.098E-25  1.127E-14
5.200E+02  8.452E-25  1.166E-14
5.152E+02  8.823E-25  1.206E-14
5.105E+02  9.210E-25  1.247E-14
5.058E+02  9.614E-25  1.290E-14
5.012E+02  1.004E-24  1.334E-14
4.966E+02  1.048E-24  1.380E-14
4.920E+02  1.094E-24  1.428E-14
4.875E+02  1.142E-24  1.477E-14
4.831E+02  1.192E-24  1.528E-14
4.786E+02  1.245E-24  1.580E-14
4.742E+02  1.300E-24  1.635E-14
4.699E+02  1.357E-24  1.692E-14
4.656E+02  1.417E-24  1.750E-14
4.613E+02  1.480E-24  1.811E-14
4.571E+02  1.545E-24  1.873E-14
4.529E+02  1.613E-24  1.938E-14
4.487E+02  1.685E-24  2.006E-14
4.446E+02  1.759E-24  2.075E-14
4.406E+02  1.837E-24  2.147E-14
4.365E+02  1.919E-24  2.222E-14
4.325E+02  2.004E-24  2.299E-14
4.285E+02  2.093E-24  2.379E-14
4.246E+02  2.186E-24  2.462E-14
4.207E+02  2.283E-24  2.548E-14
4.169E+02  2.385E-24  2.637E-14
4.130E+02  2.491E-24  2.730E-14
4.093E+02  2.602E-24  2.825E-14
4.055E+02  2.718E-24  2.924E-14
4.018E+02  2.840E-24  3.027E-14
3.981E+02  2.967E-24  3.133E-14
3.945E+02  3.099E-24  3.243E-14
3.908E+02  3.238E-24  3.357E-14
3.873E+02  3.383E-24  3.475E-14
3.837E+02  3.535E-24  3.598E-14
3.802E+02  3.693E-24  3.724E-14
3.767E+02  3.859E-24  3.856E-14
3.733E+02  4.032E-24  3.992E-14
3.698E+02  4.213E-24  4.133E-14
3.664E+02  4.403E-24  4.279E-14
3.631E+02  4.601E-24  4.431E-14
3.597E+02  4.808E-24  4.588E-14
3.565E+02  5.024E-24  4.751E-14
3.532E+02  5.251E-24  4.919E-14
3.499E+02  5.488E-24  5.094E-14
3.467E+02  5.735E-24  5.275E-14
3.436E+02  5.994E-24  5.462E-14
3.404E+02  6.265E-24  5.657E-14
3.373E+02  6.548E-24  5.858E-14
3.342E+02  6.844E-24  6.067E-14
3.311E+02  7.154E-24  6.283E-14
3.281E+02  7.477E-24  6.508E-14
3.251E+02  7.816E-24  6.740E-14
3.221E+02  8.170E-24  6.981E-14
3.192E+02  8.540E-24  7.230E-14
3.162E+02  8.928E-24  7.489E-14
3.133E+02  9.333E-24  7.757E-14
3.105E+02  9.757E-24  8.035E-14
3.076E+02  1.020E-23  8.322E-14
3.048E+02  1.066E-23  8.621E-14
3.020E+02  1.115E-23  8.930E-14
2.992E+02  1.165E-23  9.250E-14
2.965E+02  1.218E-23  9.583E-14
2.938E+02  1.274E-23  9.927E-14
2.911E+02  1.332E-23  1.028E-13
2.884E+02  1.393E-23  1.065E-13
2.858E+02  1.456E-23  1.104E-13
2.831E+02  1.522E-23  1.143E-13
2.805E+02  1.592E-23  1.185E-13
2.780E+02  1.664E-23  1.227E-13
2.754E+02  1.740E-23  1.271E-13
2.729E+02  1.820E-23  1.317E-13
2.704E+02  1.903E-23  1.365E-13
2.679E+02  1.990E-23  1.415E-13
2.655E+02  2.082E-23  1.466E-13
2.630E+02  2.177E-23  1.519E-13
2.606E+02  2.277E-23  1.574E-13
2.582E+02  2.382E-23  1.631E-13
2.559E+02  2.491E-23  1.690E-13
2.535E+02  2.604E-23  1.751E-13
2.512E+02  2.723E-23  1.814E-13
2.489E+02  2.845E-23  1.878E-13
2.466E+02  2.972E-23  1.944E-13
2.443E+02  3.103E-23  2.011E-13
2.421E+02  3.239E-23  2.080E-13
2.399E+02  3.381E-23  2.151E-13
2.377E+02  3.527E-23  2.224E-13
2.355E+02  3.679E-23  2.299E-13
2.333E+02  3.838E-23  2.376E-13
2.312E+02  4.004E-23  2.456E-13
2.291E+02  4.176E-23  2.538E-13
2.270E+02  4.356E-23  2.623E-13
2.249E+02  4.544E-23  2.711E-13
2.228E+02  4.740E-23  2.802E-13
2.208E+02  4.944E-23  2.895E-13
2.188E+02  5.156E-23  2.992E-13
2.168E+02  5.378E-23  3.092E-13
2.148E+02  5.609E-23  3.196E-13
2.128E+02  5.850E-23  3.302E-13
2.109E+02  6.100E-23  3.412E-13
2.089E+02  6.362E-23  3.526E-13
2.070E+02  6.634E-23  3.643E-13
2.051E+02  6.918E-23  3.764E-13
2.032E+02  7.214E-23  3.889E-13
2.014E+02  7.522E-23  4.018E-13
1.995E+02  7.843E-23  4.151E-13
1.977E+02  8.178E-23  4.289E-13
1.959E+02  8.526E-23  4.430E-13
1.941E+02  8.890E-23  4.577E-13
1.923E+02  9.268E-23  4.728E-13
1.905E+02  9.663E-23  4.884E-13
1.888E+02  1.007E-22  5.045E-13
1.871E+02  1.050E-22  5.211E-13
1.854E+02  1.095E-22  5.383E-13
1.837E+02  1.141E-22  5.560E-13
1.820E+02  1.190E-22  5.743E-13
1.803E+02  1.240E-22  5.932E-13
1.786E+02  1.293E-22  6.127E-13
1.770E+02  1.348E-22  6.329E-13
1.754E+02  1.405E-22  6.537E-13
1.738E+02  1.465E-22  6.752E-13
1.722E+02  1.527E-22  6.974E-13
1.706E+02  1.592E-22  7.203E-13
1.690E+02  1.659E-22  7.441E-13
1.675E+02  1.730E-22  7.686E-13
1.660E+02  1.804E-22  7.939E-13
1.644E+02  1.880E-22  8.202E-13
1.629E+02  1.961E-22  8.473E-13
1.614E+02  2.044E-22  8.754E-13
1.600E+02  2.132E-22  9.045E-13
1.585E+02  2.223E-22  9.346E-13
1.570E+02  2.319E-22  9.659E-13
1.556E+02  2.419E-22  9.983E-13
1.542E+02  2.523E-22  1.032E-12
1.528E+02  2.632E-22  1.067E-12
1.514E+02  2.747E-22  1.103E-12
1.500E+02  2.867E-22  1.140E-12
1.486E+02  2.992E-22  1.179E-12
1.472E+02  3.123E-22  1.220E-12
1.459E+02  3.259E-22  1.261E-12
1.445E+02  3.401E-22  1.304E-12
1.432E+02  3.547E-22  1.348E-12
1.419E+02  3.697E-22  1.392E-12
1.406E+02  3.851E-22  1.436E-12
1.393E+02  4.006E-22  1.480E-12
1.380E+02  4.162E-22  1.524E-12
1.368E+02  4.319E-22  1.567E-12
1.355E+02  4.479E-22  1.610E-12
1.343E+02  4.641E-22  1.653E-12
1.330E+02  4.808E-22  1.697E-12
1.318E+02  4.980E-22  1.742E-12
1.306E+02  5.159E-22  1.787E-12
1.294E+02  5.345E-22  1.835E-12
1.282E+02  5.539E-22  1.884E-12
1.271E+02  5.741E-22  1.935E-12
1.259E+02  5.952E-22  1.987E-12
1.247E+02  6.171E-22  2.042E-12
1.236E+02  6.400E-22  2.098E-12
1.225E+02  6.639E-22  2.157E-12
1.213E+02  6.888E-22  2.217E-12
1.202E+02  7.147E-22  2.279E-12
1.191E+02  7.417E-22  2.344E-12
1.180E+02  7.698E-22  2.410E-12
1.169E+02  7.989E-22  2.478E-12
1.159E+02  8.292E-22  2.549E-12
1.148E+02  8.607E-22  2.621E-12
1.138E+02  8.934E-22  2.696E-12
1.127E+02  9.274E-22  2.773E-12
1.117E+02  9.629E-22  2.853E-12
1.107E+02  9.997E-22  2.934E-12
1.096E+02  1.038E-21  3.019E-12
1.086E+02  1.078E-21  3.105E-12
1.076E+02  1.119E-21  3.195E-12
1.067E+02  1.162E-21  3.287E-12
1.057E+02  1.206E-21  3.381E-12
1.047E+02  1.252E-21  3.478E-12
1.038E+02  1.300E-21  3.578E-12
1.028E+02  1.350E-21  3.680E-12
1.019E+02  1.401E-21  3.785E-12
1.009E+02  1.454E-21  3.893E-12
1.000E+02  1.510E-21  4.004E-12
9.908E+01  1.567E-21  4.118E-12
9.817E+01  1.626E-21  4.234E-12
9.727E+01  1.687E-21  4.354E-12
9.638E+01  1.751E-21  4.477E-12
9.550E+01  1.817E-21  4.603E-12
9.462E+01  1.885E-21  4.731E-12
9.376E+01  1.956E-21  4.864E-12
9.290E+01  2.029E-21  4.999E-12
9.204E+01  2.104E-21  5.138E-12
9.120E+01  2.183E-21  5.280E-12
9.036E+01  2.264E-21  5.426E-12
8.954E+01  2.347E-21  5.575E-12
8.872E+01  2.434E-21  5.728E-12
8.790E+01  2.524E-21  5.885E-12
8.710E+01  2.617E-21  6.046E-12
8.630E+01  2.713E-21  6.211E-12
8.551E+01  2.813E-21  6.380E-12
8.472E+01  2.916E-21  6.553E-12
8.395E+01  3.022E-21  6.729E-12
8.318E+01  3.132E-21  6.910E-12
8.241E+01  3.246E-21  7.095E-12
8.166E+01  3.363E-21  7.285E-12
8.091E+01  3.485E-21  7.479E-12
8.017E+01  3.611E-21  7.678E-12
7.943E+01  3.740E-21  7.881E-12
7.870E+01  3.874E-21  8.088E-12
7.798E+01  4.012E-21  8.299E-12
7.727E+01  4.155E-21  8.516E-12
7.656E+01  4.302E-21  8.737E-12
7.586E+01  4.454E-21  8.963E-12
7.516E+01  4.611E-21  9.194E-12
7.447E+01  4.773E-21  9.430E-12
7.379E+01  4.940E-21  9.670E-12
7.311E+01  5.112E-21  9.915E-12
7.244E+01  5.290E-21  1.016E-11
7.178E+01  5.472E-21  1.042E-11
7.112E+01  5.661E-21  1.068E-11
7.047E+01  5.856E-21  1.095E-11
6.982E+01  6.057E-21  1.122E-11
6.918E+01  6.265E-21  1.150E-11
6.855E+01  6.478E-21  1.178E-11
6.792E+01  6.697E-21  1.207E-11
6.730E+01  6.923E-21  1.236E-11
6.668E+01  7.156E-21  1.266E-11
6.607E+01  7.396E-21  1.296E-11
6.546E+01  7.644E-21  1.327E-11
6.486E+01  7.899E-21  1.359E-11
