Dust emission from Draine & Li (2007): ApJ 657, 810-837
================================================================
         6 = grain model
 4.000E-08 4.000E-01 3.750E-05 = a_01 (cm) , sigma_1 , b_C1/0.92
 2.500E-07 4.000E-01 1.250E-05 = a_02 (cm) , sigma_2 , b_C2/0.92
 5.000E+00 1.000E+03 2.000E+00 = Umin , Umax, beta (dN/dU propto U^{-beta})
 2.662E+01 = <U> 
     mmp83 = radfield
 1.201E-22 = power/H (erg s-1)
 band   nu*P_nu(band) j_nu(band)
 (um)   (erg s-1 H-1)(Jy cm2 sr-1 H-1)
1.270E+00  4.051E-25  1.365E-17 COBE-DIRBE
2.220E+00  5.163E-25  3.040E-17 COBE-DIRBE
3.530E+00  3.382E-24  3.167E-16 COBE-DIRBE
4.880E+00  1.571E-24  2.033E-16 COBE-DIRBE
1.229E+01  1.425E-23  4.646E-15 COBE-DIRBE
2.079E+01  1.293E-23  7.128E-15 COBE-DIRBE
5.599E+01  6.876E-23  1.021E-13 COBE-DIRBE
9.770E+01  4.634E-23  1.201E-13 COBE-DIRBE
1.479E+02  2.168E-23  8.505E-14 COBE-DIRBE
2.479E+02  4.668E-24  3.069E-14 COBE-DIRBE
1.200E+01  1.494E-23  4.757E-15 IRAS
2.500E+01  1.467E-23  9.726E-15 IRAS
6.000E+01  6.735E-23  1.072E-13 IRAS
1.000E+02  4.467E-23  1.185E-13 IRAS
3.550E+00  3.933E-24  3.704E-16 SST-IRAC
4.493E+00  1.100E-24  1.311E-16 SST-IRAC
5.731E+00  9.321E-24  1.417E-15 SST-IRAC
7.872E+00  2.167E-23  4.525E-15 SST-IRAC
2.368E+01  1.238E-23  7.776E-15 SST-MIPS
7.142E+01  5.900E-23  1.118E-13 SST-MIPS
1.559E+02  1.748E-23  7.227E-14 SST-MIPS
1.600E+01  1.208E-23  5.126E-15 SST-IRSPU
2.200E+01  1.259E-23  7.345E-15 SST-IRSPU











lambda    nu*dP/dnu     j_nu
 (um)   (erg s-1 H-1)(Jy cm2 sr-1 H-1)
1.000E+04  8.397E-31  2.227E-19
9.908E+03  8.704E-31  2.288E-19
9.817E+03  9.023E-31  2.350E-19
9.727E+03  9.354E-31  2.414E-19
9.638E+03  9.696E-31  2.479E-19
9.550E+03  1.005E-30  2.546E-19
9.462E+03  1.042E-30  2.615E-19
9.376E+03  1.080E-30  2.686E-19
9.290E+03  1.120E-30  2.759E-19
9.204E+03  1.161E-30  2.834E-19
9.120E+03  1.203E-30  2.911E-19
9.036E+03  1.247E-30  2.990E-19
8.954E+03  1.293E-30  3.071E-19
8.872E+03  1.340E-30  3.154E-19
8.790E+03  1.389E-30  3.239E-19
8.710E+03  1.440E-30  3.326E-19
8.630E+03  1.492E-30  3.416E-19
8.551E+03  1.547E-30  3.509E-19
8.472E+03  1.603E-30  3.603E-19
8.395E+03  1.662E-30  3.701E-19
8.318E+03  1.723E-30  3.801E-19
8.241E+03  1.786E-30  3.905E-19
8.166E+03  1.852E-30  4.011E-19
8.091E+03  1.920E-30  4.120E-19
8.017E+03  1.990E-30  4.232E-19
7.943E+03  2.063E-30  4.347E-19
7.870E+03  2.139E-30  4.465E-19
7.798E+03  2.218E-30  4.587E-19
7.727E+03  2.299E-30  4.712E-19
7.656E+03  2.384E-30  4.841E-19
7.586E+03  2.472E-30  4.974E-19
7.516E+03  2.563E-30  5.110E-19
7.447E+03  2.657E-30  5.250E-19
7.379E+03  2.756E-30  5.394E-19
7.311E+03  2.857E-30  5.541E-19
7.244E+03  2.963E-30  5.694E-19
7.178E+03  3.073E-30  5.850E-19
7.112E+03  3.186E-30  6.011E-19
7.047E+03  3.304E-30  6.176E-19
6.982E+03  3.427E-30  6.346E-19
6.918E+03  3.553E-30  6.521E-19
6.855E+03  3.685E-30  6.700E-19
6.792E+03  3.821E-30  6.885E-19
6.730E+03  3.963E-30  7.075E-19
6.668E+03  4.110E-30  7.270E-19
6.607E+03  4.263E-30  7.471E-19
6.546E+03  4.421E-30  7.677E-19
6.486E+03  4.586E-30  7.890E-19
6.427E+03  4.756E-30  8.108E-19
6.368E+03  4.933E-30  8.333E-19
6.310E+03  5.117E-30  8.564E-19
6.252E+03  5.308E-30  8.802E-19
6.194E+03  5.506E-30  9.047E-19
6.138E+03  5.711E-30  9.298E-19
6.081E+03  5.925E-30  9.557E-19
6.026E+03  6.146E-30  9.824E-19
5.970E+03  6.376E-30  1.010E-18
5.916E+03  6.615E-30  1.038E-18
5.861E+03  6.863E-30  1.067E-18
5.808E+03  7.120E-30  1.097E-18
5.754E+03  7.387E-30  1.128E-18
5.702E+03  7.664E-30  1.159E-18
5.649E+03  7.952E-30  1.192E-18
5.598E+03  8.251E-30  1.225E-18
5.546E+03  8.561E-30  1.259E-18
5.495E+03  8.883E-30  1.295E-18
5.445E+03  9.217E-30  1.331E-18
5.395E+03  9.565E-30  1.369E-18
5.346E+03  9.925E-30  1.407E-18
5.297E+03  1.030E-29  1.447E-18
5.248E+03  1.069E-29  1.488E-18
5.200E+03  1.109E-29  1.530E-18
5.152E+03  1.151E-29  1.573E-18
5.105E+03  1.195E-29  1.618E-18
5.058E+03  1.240E-29  1.663E-18
5.012E+03  1.287E-29  1.711E-18
4.966E+03  1.335E-29  1.759E-18
4.920E+03  1.386E-29  1.809E-18
4.875E+03  1.438E-29  1.860E-18
4.831E+03  1.493E-29  1.913E-18
4.786E+03  1.550E-29  1.967E-18
4.742E+03  1.609E-29  2.023E-18
4.699E+03  1.670E-29  2.081E-18
4.656E+03  1.733E-29  2.140E-18
4.613E+03  1.799E-29  2.202E-18
4.571E+03  1.868E-29  2.264E-18
4.529E+03  1.939E-29  2.329E-18
4.487E+03  2.013E-29  2.396E-18
4.446E+03  2.090E-29  2.464E-18
4.406E+03  2.169E-29  2.535E-18
4.365E+03  2.252E-29  2.608E-18
4.325E+03  2.338E-29  2.683E-18
4.285E+03  2.428E-29  2.760E-18
4.246E+03  2.521E-29  2.839E-18
4.207E+03  2.617E-29  2.921E-18
4.169E+03  2.718E-29  3.005E-18
4.130E+03  2.822E-29  3.092E-18
4.093E+03  2.930E-29  3.181E-18
4.055E+03  3.043E-29  3.273E-18
4.018E+03  3.160E-29  3.368E-18
3.981E+03  3.281E-29  3.465E-18
3.945E+03  3.408E-29  3.565E-18
3.908E+03  3.539E-29  3.669E-18
3.873E+03  3.675E-29  3.775E-18
3.837E+03  3.816E-29  3.884E-18
3.802E+03  3.963E-29  3.997E-18
3.767E+03  4.116E-29  4.113E-18
3.733E+03  4.275E-29  4.233E-18
3.698E+03  4.440E-29  4.356E-18
3.664E+03  4.612E-29  4.483E-18
3.631E+03  4.791E-29  4.614E-18
3.597E+03  4.976E-29  4.749E-18
3.565E+03  5.169E-29  4.887E-18
3.532E+03  5.370E-29  5.031E-18
3.499E+03  5.578E-29  5.178E-18
3.467E+03  5.795E-29  5.330E-18
3.436E+03  6.020E-29  5.486E-18
3.404E+03  6.254E-29  5.647E-18
3.373E+03  6.498E-29  5.814E-18
3.342E+03  6.751E-29  5.985E-18
3.311E+03  7.014E-29  6.161E-18
3.281E+03  7.288E-29  6.343E-18
3.251E+03  7.573E-29  6.530E-18
3.221E+03  7.869E-29  6.723E-18
3.192E+03  8.176E-29  6.922E-18
3.162E+03  8.496E-29  7.127E-18
3.133E+03  8.829E-29  7.338E-18
3.105E+03  9.175E-29  7.556E-18
3.076E+03  9.535E-29  7.780E-18
3.048E+03  9.909E-29  8.011E-18
3.020E+03  1.030E-28  8.249E-18
2.992E+03  1.070E-28  8.495E-18
2.965E+03  1.112E-28  8.747E-18
2.938E+03  1.156E-28  9.006E-18
2.911E+03  1.201E-28  9.274E-18
2.884E+03  1.248E-28  9.550E-18
2.858E+03  1.297E-28  9.834E-18
2.831E+03  1.348E-28  1.013E-17
2.805E+03  1.402E-28  1.043E-17
2.780E+03  1.457E-28  1.074E-17
2.754E+03  1.514E-28  1.106E-17
2.729E+03  1.574E-28  1.139E-17
2.704E+03  1.636E-28  1.173E-17
2.679E+03  1.701E-28  1.209E-17
2.655E+03  1.768E-28  1.245E-17
2.630E+03  1.838E-28  1.282E-17
2.606E+03  1.911E-28  1.321E-17
2.582E+03  1.986E-28  1.361E-17
2.559E+03  2.065E-28  1.402E-17
2.535E+03  2.147E-28  1.444E-17
2.512E+03  2.232E-28  1.487E-17
2.489E+03  2.321E-28  1.532E-17
2.466E+03  2.413E-28  1.579E-17
2.443E+03  2.509E-28  1.626E-17
2.421E+03  2.609E-28  1.676E-17
2.399E+03  2.713E-28  1.726E-17
2.377E+03  2.821E-28  1.779E-17
2.355E+03  2.934E-28  1.833E-17
2.333E+03  3.051E-28  1.888E-17
2.312E+03  3.173E-28  1.946E-17
2.291E+03  3.300E-28  2.005E-17
2.270E+03  3.431E-28  2.066E-17
2.249E+03  3.569E-28  2.129E-17
2.228E+03  3.711E-28  2.194E-17
2.208E+03  3.860E-28  2.261E-17
2.188E+03  4.015E-28  2.330E-17
2.168E+03  4.176E-28  2.401E-17
2.148E+03  4.343E-28  2.474E-17
2.128E+03  4.517E-28  2.550E-17
2.109E+03  4.698E-28  2.628E-17
2.089E+03  4.887E-28  2.708E-17
2.070E+03  5.083E-28  2.791E-17
2.051E+03  5.288E-28  2.877E-17
2.032E+03  5.500E-28  2.965E-17
2.014E+03  5.722E-28  3.056E-17
1.995E+03  5.952E-28  3.150E-17
1.977E+03  6.191E-28  3.247E-17
1.959E+03  6.441E-28  3.346E-17
1.941E+03  6.700E-28  3.449E-17
1.923E+03  6.970E-28  3.555E-17
1.905E+03  7.251E-28  3.665E-17
1.888E+03  7.543E-28  3.778E-17
1.871E+03  7.847E-28  3.894E-17
1.854E+03  8.164E-28  4.014E-17
1.837E+03  8.494E-28  4.138E-17
1.820E+03  8.837E-28  4.265E-17
1.803E+03  9.194E-28  4.397E-17
1.786E+03  9.565E-28  4.533E-17
1.770E+03  9.952E-28  4.673E-17
1.754E+03  1.035E-27  4.817E-17
1.738E+03  1.077E-27  4.966E-17
1.722E+03  1.121E-27  5.120E-17
1.706E+03  1.166E-27  5.278E-17
1.690E+03  1.214E-27  5.442E-17
1.675E+03  1.263E-27  5.610E-17
1.660E+03  1.314E-27  5.784E-17
1.644E+03  1.367E-27  5.963E-17
1.629E+03  1.423E-27  6.148E-17
1.614E+03  1.480E-27  6.339E-17
1.600E+03  1.540E-27  6.535E-17
1.585E+03  1.603E-27  6.738E-17
1.570E+03  1.668E-27  6.947E-17
1.556E+03  1.735E-27  7.163E-17
1.542E+03  1.806E-27  7.385E-17
1.528E+03  1.879E-27  7.614E-17
1.514E+03  1.955E-27  7.851E-17
1.500E+03  2.035E-27  8.094E-17
1.486E+03  2.117E-27  8.346E-17
1.472E+03  2.203E-27  8.605E-17
1.459E+03  2.293E-27  8.873E-17
1.445E+03  2.386E-27  9.149E-17
1.432E+03  2.483E-27  9.434E-17
1.419E+03  2.584E-27  9.728E-17
1.406E+03  2.689E-27  1.003E-16
1.393E+03  2.799E-27  1.034E-16
1.380E+03  2.913E-27  1.066E-16
1.368E+03  3.031E-27  1.100E-16
1.355E+03  3.154E-27  1.134E-16
1.343E+03  3.283E-27  1.169E-16
1.330E+03  3.416E-27  1.206E-16
1.318E+03  3.555E-27  1.243E-16
1.306E+03  3.700E-27  1.282E-16
1.294E+03  3.850E-27  1.322E-16
1.282E+03  4.007E-27  1.363E-16
1.271E+03  4.170E-27  1.405E-16
1.259E+03  4.340E-27  1.449E-16
1.247E+03  4.516E-27  1.494E-16
1.236E+03  4.700E-27  1.541E-16
1.225E+03  4.891E-27  1.589E-16
1.213E+03  5.090E-27  1.638E-16
1.202E+03  5.297E-27  1.689E-16
1.191E+03  5.512E-27  1.742E-16
1.180E+03  5.736E-27  1.796E-16
1.169E+03  5.969E-27  1.852E-16
1.159E+03  6.211E-27  1.909E-16
1.148E+03  6.464E-27  1.969E-16
1.138E+03  6.726E-27  2.030E-16
1.127E+03  6.999E-27  2.093E-16
1.117E+03  7.283E-27  2.158E-16
1.107E+03  7.579E-27  2.225E-16
1.096E+03  7.887E-27  2.294E-16
1.086E+03  8.206E-27  2.365E-16
1.076E+03  8.539E-27  2.438E-16
1.067E+03  8.885E-27  2.514E-16
1.057E+03  9.245E-27  2.592E-16
1.047E+03  9.620E-27  2.672E-16
1.038E+03  1.001E-26  2.755E-16
1.028E+03  1.041E-26  2.840E-16
1.019E+03  1.084E-26  2.928E-16
1.009E+03  1.127E-26  3.018E-16
1.000E+03  1.173E-26  3.111E-16
9.908E+02  1.220E-26  3.208E-16
9.817E+02  1.270E-26  3.307E-16
9.727E+02  1.321E-26  3.409E-16
9.638E+02  1.375E-26  3.514E-16
9.550E+02  1.430E-26  3.623E-16
9.462E+02  1.488E-26  3.735E-16
9.376E+02  1.548E-26  3.850E-16
9.290E+02  1.611E-26  3.969E-16
9.204E+02  1.676E-26  4.091E-16
9.120E+02  1.743E-26  4.217E-16
9.036E+02  1.813E-26  4.347E-16
8.954E+02  1.886E-26  4.480E-16
8.872E+02  1.962E-26  4.618E-16
8.790E+02  2.041E-26  4.759E-16
8.710E+02  2.123E-26  4.905E-16
8.630E+02  2.208E-26  5.055E-16
8.551E+02  2.297E-26  5.210E-16
8.472E+02  2.389E-26  5.369E-16
8.395E+02  2.485E-26  5.533E-16
8.318E+02  2.584E-26  5.701E-16
8.241E+02  2.687E-26  5.875E-16
8.166E+02  2.795E-26  6.054E-16
8.091E+02  2.906E-26  6.238E-16
8.017E+02  3.022E-26  6.427E-16
7.943E+02  3.143E-26  6.622E-16
7.870E+02  3.268E-26  6.823E-16
7.798E+02  3.398E-26  7.029E-16
7.727E+02  3.533E-26  7.242E-16
7.656E+02  3.674E-26  7.461E-16
7.586E+02  3.820E-26  7.686E-16
7.516E+02  3.972E-26  7.918E-16
7.447E+02  4.129E-26  8.158E-16
7.379E+02  4.294E-26  8.404E-16
7.311E+02  4.464E-26  8.658E-16
7.244E+02  4.642E-26  8.920E-16
7.178E+02  4.826E-26  9.189E-16
7.112E+02  5.018E-26  9.467E-16
7.047E+02  5.218E-26  9.753E-16
6.982E+02  5.425E-26  1.005E-15
6.918E+02  5.640E-26  1.035E-15
6.855E+02  5.864E-26  1.066E-15
6.792E+02  6.097E-26  1.098E-15
6.730E+02  6.338E-26  1.131E-15
6.668E+02  6.589E-26  1.165E-15
6.607E+02  6.849E-26  1.200E-15
6.546E+02  7.121E-26  1.237E-15
6.486E+02  7.404E-26  1.274E-15
6.427E+02  7.698E-26  1.312E-15
6.368E+02  8.004E-26  1.352E-15
6.310E+02  8.321E-26  1.393E-15
6.252E+02  8.652E-26  1.435E-15
6.194E+02  8.995E-26  1.478E-15
6.138E+02  9.352E-26  1.523E-15
6.081E+02  9.723E-26  1.569E-15
6.026E+02  1.011E-25  1.616E-15
5.970E+02  1.051E-25  1.665E-15
5.916E+02  1.093E-25  1.715E-15
5.861E+02  1.136E-25  1.766E-15
5.808E+02  1.181E-25  1.820E-15
5.754E+02  1.228E-25  1.874E-15
5.702E+02  1.277E-25  1.931E-15
5.649E+02  1.327E-25  1.989E-15
5.598E+02  1.380E-25  2.049E-15
5.546E+02  1.435E-25  2.111E-15
5.495E+02  1.492E-25  2.174E-15
5.445E+02  1.551E-25  2.240E-15
5.395E+02  1.612E-25  2.307E-15
5.346E+02  1.676E-25  2.377E-15
5.297E+02  1.743E-25  2.448E-15
5.248E+02  1.812E-25  2.522E-15
5.200E+02  1.883E-25  2.598E-15
5.152E+02  1.958E-25  2.676E-15
5.105E+02  2.035E-25  2.756E-15
5.058E+02  2.116E-25  2.839E-15
5.012E+02  2.200E-25  2.924E-15
4.966E+02  2.287E-25  3.012E-15
4.920E+02  2.377E-25  3.102E-15
4.875E+02  2.471E-25  3.195E-15
4.831E+02  2.569E-25  3.291E-15
4.786E+02  2.670E-25  3.390E-15
4.742E+02  2.775E-25  3.491E-15
4.699E+02  2.885E-25  3.596E-15
4.656E+02  2.999E-25  3.703E-15
4.613E+02  3.117E-25  3.814E-15
4.571E+02  3.240E-25  3.928E-15
4.529E+02  3.367E-25  4.045E-15
4.487E+02  3.500E-25  4.166E-15
4.446E+02  3.637E-25  4.290E-15
4.406E+02  3.780E-25  4.418E-15
4.365E+02  3.929E-25  4.549E-15
4.325E+02  4.083E-25  4.684E-15
4.285E+02  4.243E-25  4.823E-15
4.246E+02  4.410E-25  4.967E-15
4.207E+02  4.582E-25  5.114E-15
4.169E+02  4.762E-25  5.266E-15
4.130E+02  4.948E-25  5.422E-15
4.093E+02  5.142E-25  5.582E-15
4.055E+02  5.343E-25  5.747E-15
4.018E+02  5.552E-25  5.917E-15
3.981E+02  5.769E-25  6.092E-15
3.945E+02  5.994E-25  6.272E-15
3.908E+02  6.228E-25  6.457E-15
3.873E+02  6.471E-25  6.647E-15
3.837E+02  6.723E-25  6.842E-15
3.802E+02  6.984E-25  7.044E-15
3.767E+02  7.256E-25  7.251E-15
3.733E+02  7.538E-25  7.463E-15
3.698E+02  7.831E-25  7.682E-15
3.664E+02  8.134E-25  7.907E-15
3.631E+02  8.450E-25  8.138E-15
3.597E+02  8.777E-25  8.375E-15
3.565E+02  9.116E-25  8.620E-15
3.532E+02  9.468E-25  8.870E-15
3.499E+02  9.834E-25  9.128E-15
3.467E+02  1.021E-24  9.393E-15
3.436E+02  1.061E-24  9.666E-15
3.404E+02  1.101E-24  9.945E-15
3.373E+02  1.144E-24  1.023E-14
3.342E+02  1.188E-24  1.053E-14
3.311E+02  1.233E-24  1.083E-14
3.281E+02  1.280E-24  1.114E-14
3.251E+02  1.329E-24  1.146E-14
3.221E+02  1.380E-24  1.179E-14
3.192E+02  1.433E-24  1.213E-14
3.162E+02  1.487E-24  1.247E-14
3.133E+02  1.544E-24  1.283E-14
3.105E+02  1.602E-24  1.319E-14
3.076E+02  1.663E-24  1.357E-14
3.048E+02  1.726E-24  1.395E-14
3.020E+02  1.791E-24  1.435E-14
2.992E+02  1.858E-24  1.475E-14
2.965E+02  1.928E-24  1.516E-14
2.938E+02  2.001E-24  1.559E-14
2.911E+02  2.076E-24  1.603E-14
2.884E+02  2.153E-24  1.647E-14
2.858E+02  2.234E-24  1.693E-14
2.831E+02  2.317E-24  1.740E-14
2.805E+02  2.403E-24  1.788E-14
2.780E+02  2.493E-24  1.838E-14
2.754E+02  2.585E-24  1.889E-14
2.729E+02  2.681E-24  1.941E-14
2.704E+02  2.780E-24  1.994E-14
2.679E+02  2.883E-24  2.049E-14
2.655E+02  2.990E-24  2.105E-14
2.630E+02  3.100E-24  2.163E-14
2.606E+02  3.214E-24  2.222E-14
2.582E+02  3.332E-24  2.282E-14
2.559E+02  3.453E-24  2.344E-14
2.535E+02  3.578E-24  2.406E-14
2.512E+02  3.707E-24  2.470E-14
2.489E+02  3.838E-24  2.534E-14
2.466E+02  3.971E-24  2.598E-14
2.443E+02  4.108E-24  2.662E-14
2.421E+02  4.248E-24  2.728E-14
2.399E+02  4.391E-24  2.794E-14
2.377E+02  4.537E-24  2.860E-14
2.355E+02  4.686E-24  2.927E-14
2.333E+02  4.840E-24  2.996E-14
2.312E+02  4.999E-24  3.066E-14
2.291E+02  5.162E-24  3.137E-14
2.270E+02  5.330E-24  3.209E-14
2.249E+02  5.502E-24  3.282E-14
2.228E+02  5.679E-24  3.357E-14
2.208E+02  5.862E-24  3.433E-14
2.188E+02  6.049E-24  3.511E-14
2.168E+02  6.242E-24  3.589E-14
2.148E+02  6.440E-24  3.669E-14
2.128E+02  6.643E-24  3.750E-14
2.109E+02  6.852E-24  3.832E-14
2.089E+02  7.066E-24  3.916E-14
2.070E+02  7.286E-24  4.001E-14
2.051E+02  7.512E-24  4.087E-14
2.032E+02  7.743E-24  4.174E-14
2.014E+02  7.981E-24  4.263E-14
1.995E+02  8.225E-24  4.353E-14
1.977E+02  8.475E-24  4.445E-14
1.959E+02  8.732E-24  4.537E-14
1.941E+02  8.995E-24  4.631E-14
1.923E+02  9.264E-24  4.726E-14
1.905E+02  9.541E-24  4.822E-14
1.888E+02  9.825E-24  4.920E-14
1.871E+02  1.012E-23  5.019E-14
1.854E+02  1.041E-23  5.120E-14
1.837E+02  1.072E-23  5.222E-14
1.820E+02  1.103E-23  5.325E-14
1.803E+02  1.135E-23  5.429E-14
1.786E+02  1.168E-23  5.535E-14
1.770E+02  1.202E-23  5.642E-14
1.754E+02  1.236E-23  5.751E-14
1.738E+02  1.272E-23  5.861E-14
1.722E+02  1.308E-23  5.973E-14
1.706E+02  1.345E-23  6.087E-14
1.690E+02  1.383E-23  6.201E-14
1.675E+02  1.422E-23  6.318E-14
1.660E+02  1.462E-23  6.437E-14
1.644E+02  1.503E-23  6.557E-14
1.629E+02  1.546E-23  6.680E-14
1.614E+02  1.589E-23  6.804E-14
1.600E+02  1.633E-23  6.930E-14
1.585E+02  1.679E-23  7.059E-14
1.570E+02  1.726E-23  7.191E-14
1.556E+02  1.775E-23  7.325E-14
1.542E+02  1.825E-23  7.462E-14
1.528E+02  1.876E-23  7.602E-14
1.514E+02  1.929E-23  7.744E-14
1.500E+02  1.983E-23  7.890E-14
1.486E+02  2.039E-23  8.037E-14
1.472E+02  2.096E-23  8.187E-14
1.459E+02  2.154E-23  8.336E-14
1.445E+02  2.213E-23  8.486E-14
1.432E+02  2.272E-23  8.632E-14
1.419E+02  2.330E-23  8.771E-14
1.406E+02  2.387E-23  8.901E-14
1.393E+02  2.441E-23  9.020E-14
1.380E+02  2.492E-23  9.126E-14
1.368E+02  2.541E-23  9.219E-14
1.355E+02  2.587E-23  9.301E-14
1.343E+02  2.632E-23  9.375E-14
1.330E+02  2.676E-23  9.445E-14
1.318E+02  2.720E-23  9.512E-14
1.306E+02  2.765E-23  9.579E-14
1.294E+02  2.810E-23  9.646E-14
1.282E+02  2.856E-23  9.714E-14
1.271E+02  2.903E-23  9.784E-14
1.259E+02  2.951E-23  9.855E-14
1.247E+02  3.001E-23  9.929E-14
1.236E+02  3.051E-23  1.000E-13
1.225E+02  3.103E-23  1.008E-13
1.213E+02  3.156E-23  1.016E-13
1.202E+02  3.210E-23  1.024E-13
1.191E+02  3.265E-23  1.032E-13
1.180E+02  3.321E-23  1.040E-13
1.169E+02  3.378E-23  1.048E-13
1.159E+02  3.435E-23  1.056E-13
1.148E+02  3.493E-23  1.064E-13
1.138E+02  3.551E-23  1.072E-13
1.127E+02  3.611E-23  1.080E-13
1.117E+02  3.671E-23  1.088E-13
1.107E+02  3.732E-23  1.095E-13
1.096E+02  3.794E-23  1.103E-13
1.086E+02  3.856E-23  1.111E-13
1.076E+02  3.918E-23  1.119E-13
1.067E+02  3.982E-23  1.127E-13
1.057E+02  4.045E-23  1.134E-13
1.047E+02  4.109E-23  1.141E-13
1.038E+02  4.174E-23  1.149E-13
1.028E+02  4.238E-23  1.156E-13
1.019E+02  4.302E-23  1.162E-13
1.009E+02  4.366E-23  1.169E-13
1.000E+02  4.431E-23  1.175E-13
9.908E+01  4.495E-23  1.181E-13
9.817E+01  4.560E-23  1.187E-13
9.727E+01  4.624E-23  1.193E-13
9.638E+01  4.689E-23  1.199E-13
9.550E+01  4.753E-23  1.204E-13
9.462E+01  4.817E-23  1.209E-13
9.376E+01  4.881E-23  1.214E-13
9.290E+01  4.945E-23  1.218E-13
9.204E+01  5.008E-23  1.223E-13
9.120E+01  5.071E-23  1.227E-13
9.036E+01  5.133E-23  1.230E-13
8.954E+01  5.195E-23  1.234E-13
8.872E+01  5.257E-23  1.237E-13
8.790E+01  5.319E-23  1.240E-13
8.710E+01  5.379E-23  1.243E-13
8.630E+01  5.440E-23  1.245E-13
8.551E+01  5.500E-23  1.248E-13
8.472E+01  5.558E-23  1.249E-13
8.395E+01  5.617E-23  1.251E-13
8.318E+01  5.675E-23  1.252E-13
8.241E+01  5.732E-23  1.253E-13
8.166E+01  5.789E-23  1.254E-13
8.091E+01  5.845E-23  1.255E-13
8.017E+01  5.901E-23  1.255E-13
7.943E+01  5.955E-23  1.255E-13
7.870E+01  6.008E-23  1.254E-13
7.798E+01  6.060E-23  1.254E-13
7.727E+01  6.111E-23  1.253E-13
7.656E+01  6.162E-23  1.251E-13
7.586E+01  6.211E-23  1.250E-13
7.516E+01  6.259E-23  1.248E-13
7.447E+01  6.306E-23  1.246E-13
7.379E+01  6.350E-23  1.243E-13
7.311E+01  6.395E-23  1.240E-13
7.244E+01  6.436E-23  1.237E-13
7.178E+01  6.478E-23  1.233E-13
7.112E+01  6.518E-23  1.230E-13
7.047E+01  6.557E-23  1.226E-13
6.982E+01  6.596E-23  1.222E-13
6.918E+01  6.633E-23  1.217E-13
6.855E+01  6.668E-23  1.213E-13
6.792E+01  6.702E-23  1.207E-13
6.730E+01  6.734E-23  1.202E-13
6.668E+01  6.766E-23  1.197E-13
6.607E+01  6.796E-23  1.191E-13
6.546E+01  6.823E-23  1.185E-13
6.486E+01  6.850E-23  1.179E-13
6.427E+01  6.876E-23  1.172E-13
6.368E+01  6.900E-23  1.165E-13
6.310E+01  6.922E-23  1.159E-13
6.252E+01  6.944E-23  1.151E-13
6.194E+01  6.964E-23  1.144E-13
6.138E+01  6.982E-23  1.137E-13
6.081E+01  7.000E-23  1.129E-13
6.026E+01  7.015E-23  1.121E-13
5.970E+01  7.029E-23  1.113E-13
5.916E+01  7.042E-23  1.105E-13
5.861E+01  7.052E-23  1.096E-13
5.808E+01  7.061E-23  1.088E-13
5.754E+01  7.070E-23  1.079E-13
5.702E+01  7.076E-23  1.070E-13
5.649E+01  7.082E-23  1.061E-13
5.598E+01  7.086E-23  1.052E-13
5.546E+01  7.089E-23  1.043E-13
5.495E+01  7.091E-23  1.034E-13
5.445E+01  7.092E-23  1.024E-13
5.395E+01  7.091E-23  1.015E-13
5.346E+01  7.089E-23  1.005E-13
5.297E+01  7.085E-23  9.955E-14
5.248E+01  7.081E-23  9.857E-14
5.200E+01  7.075E-23  9.759E-14
5.152E+01  7.068E-23  9.660E-14
5.105E+01  7.059E-23  9.559E-14
5.058E+01  7.050E-23  9.459E-14
5.012E+01  7.039E-23  9.358E-14
4.966E+01  7.027E-23  9.256E-14
