Dust emission from Draine & Li (2007): ApJ 657, 810-837
================================================================
        10 = grain model
 4.000E-08 4.000E-01 5.000E-06 = a_01 (cm) , sigma_1 , b_C1/0.92
 2.500E-07 4.000E-01 5.000E-06 = a_02 (cm) , sigma_2 , b_C2/0.92
 5.000E+00 1.000E+03 2.000E+00 = Umin , Umax, beta (dN/dU propto U^{-beta})
 2.662E+01 = <U> 
     mmp83 = radfield
 2.782E-23 = power/H (erg s-1)
 band   nu*P_nu(band) j_nu(band)
 (um)   (erg s-1 H-1)(Jy cm2 sr-1 H-1)
1.270E+00  7.751E-26  2.611E-18 COBE-DIRBE
2.220E+00  1.039E-25  6.118E-18 COBE-DIRBE
3.530E+00  5.470E-25  5.121E-17 COBE-DIRBE
4.880E+00  2.636E-25  3.412E-17 COBE-DIRBE
1.229E+01  2.959E-24  9.647E-16 COBE-DIRBE
2.079E+01  3.849E-24  2.123E-15 COBE-DIRBE
5.599E+01  1.547E-23  2.297E-14 COBE-DIRBE
9.770E+01  1.216E-23  3.151E-14 COBE-DIRBE
1.479E+02  5.941E-24  2.331E-14 COBE-DIRBE
2.479E+02  1.359E-24  8.932E-15 COBE-DIRBE
1.200E+01  2.909E-24  9.258E-16 IRAS
2.500E+01  4.240E-24  2.812E-15 IRAS
6.000E+01  1.544E-23  2.457E-14 IRAS
1.000E+02  1.178E-23  3.126E-14 IRAS
3.550E+00  6.320E-25  5.951E-17 SST-IRAC
4.493E+00  1.929E-25  2.300E-17 SST-IRAC
5.731E+00  1.439E-24  2.187E-16 SST-IRAC
7.872E+00  3.568E-24  7.451E-16 SST-IRAC
2.368E+01  3.807E-24  2.392E-15 SST-MIPS
7.142E+01  1.439E-23  2.726E-14 SST-MIPS
1.559E+02  4.827E-24  1.996E-14 SST-MIPS
1.600E+01  3.039E-24  1.290E-15 SST-IRSPU
2.200E+01  3.854E-24  2.249E-15 SST-IRSPU











lambda    nu*dP/dnu     j_nu
 (um)   (erg s-1 H-1)(Jy cm2 sr-1 H-1)
1.000E+04  2.923E-31  7.754E-20
9.908E+03  3.030E-31  7.963E-20
9.817E+03  3.140E-31  8.177E-20
9.727E+03  3.255E-31  8.398E-20
9.638E+03  3.373E-31  8.624E-20
9.550E+03  3.496E-31  8.857E-20
9.462E+03  3.624E-31  9.095E-20
9.376E+03  3.756E-31  9.341E-20
9.290E+03  3.893E-31  9.592E-20
9.204E+03  4.035E-31  9.851E-20
9.120E+03  4.182E-31  1.012E-19
9.036E+03  4.334E-31  1.039E-19
8.954E+03  4.492E-31  1.067E-19
8.872E+03  4.655E-31  1.095E-19
8.790E+03  4.823E-31  1.125E-19
8.710E+03  4.999E-31  1.155E-19
8.630E+03  5.180E-31  1.186E-19
8.551E+03  5.368E-31  1.218E-19
8.472E+03  5.563E-31  1.250E-19
8.395E+03  5.766E-31  1.284E-19
8.318E+03  5.976E-31  1.318E-19
8.241E+03  6.193E-31  1.354E-19
8.166E+03  6.419E-31  1.390E-19
8.091E+03  6.653E-31  1.428E-19
8.017E+03  6.896E-31  1.466E-19
7.943E+03  7.148E-31  1.506E-19
7.870E+03  7.409E-31  1.547E-19
7.798E+03  7.680E-31  1.589E-19
7.727E+03  7.961E-31  1.632E-19
7.656E+03  8.252E-31  1.676E-19
7.586E+03  8.554E-31  1.721E-19
7.516E+03  8.868E-31  1.768E-19
7.447E+03  9.193E-31  1.816E-19
7.379E+03  9.530E-31  1.865E-19
7.311E+03  9.880E-31  1.916E-19
7.244E+03  1.024E-30  1.968E-19
7.178E+03  1.062E-30  2.022E-19
7.112E+03  1.101E-30  2.077E-19
7.047E+03  1.142E-30  2.134E-19
6.982E+03  1.184E-30  2.192E-19
6.918E+03  1.227E-30  2.252E-19
6.855E+03  1.272E-30  2.313E-19
6.792E+03  1.319E-30  2.376E-19
6.730E+03  1.368E-30  2.441E-19
6.668E+03  1.418E-30  2.508E-19
6.607E+03  1.470E-30  2.577E-19
6.546E+03  1.525E-30  2.647E-19
6.486E+03  1.581E-30  2.720E-19
6.427E+03  1.639E-30  2.795E-19
6.368E+03  1.700E-30  2.871E-19
6.310E+03  1.763E-30  2.950E-19
6.252E+03  1.828E-30  3.031E-19
6.194E+03  1.896E-30  3.115E-19
6.138E+03  1.966E-30  3.201E-19
6.081E+03  2.039E-30  3.289E-19
6.026E+03  2.115E-30  3.380E-19
5.970E+03  2.193E-30  3.473E-19
5.916E+03  2.275E-30  3.569E-19
5.861E+03  2.359E-30  3.668E-19
5.808E+03  2.447E-30  3.770E-19
5.754E+03  2.538E-30  3.874E-19
5.702E+03  2.633E-30  3.982E-19
5.649E+03  2.731E-30  4.092E-19
5.598E+03  2.833E-30  4.206E-19
5.546E+03  2.938E-30  4.323E-19
5.495E+03  3.048E-30  4.443E-19
5.445E+03  3.162E-30  4.567E-19
5.395E+03  3.280E-30  4.694E-19
5.346E+03  3.403E-30  4.825E-19
5.297E+03  3.530E-30  4.960E-19
5.248E+03  3.662E-30  5.098E-19
5.200E+03  3.799E-30  5.241E-19
5.152E+03  3.942E-30  5.387E-19
5.105E+03  4.090E-30  5.538E-19
5.058E+03  4.243E-30  5.693E-19
5.012E+03  4.402E-30  5.853E-19
4.966E+03  4.567E-30  6.017E-19
4.920E+03  4.739E-30  6.185E-19
4.875E+03  4.917E-30  6.359E-19
4.831E+03  5.102E-30  6.537E-19
4.786E+03  5.294E-30  6.721E-19
4.742E+03  5.493E-30  6.910E-19
4.699E+03  5.700E-30  7.105E-19
4.656E+03  5.915E-30  7.305E-19
4.613E+03  6.138E-30  7.511E-19
4.571E+03  6.370E-30  7.723E-19
4.529E+03  6.610E-30  7.941E-19
4.487E+03  6.860E-30  8.166E-19
4.446E+03  7.120E-30  8.397E-19
4.406E+03  7.389E-30  8.635E-19
4.365E+03  7.669E-30  8.880E-19
4.325E+03  7.959E-30  9.132E-19
4.285E+03  8.261E-30  9.391E-19
4.246E+03  8.574E-30  9.658E-19
4.207E+03  8.900E-30  9.932E-19
4.169E+03  9.238E-30  1.022E-18
4.130E+03  9.589E-30  1.051E-18
4.093E+03  9.953E-30  1.081E-18
4.055E+03  1.033E-29  1.111E-18
4.018E+03  1.073E-29  1.143E-18
3.981E+03  1.113E-29  1.176E-18
3.945E+03  1.156E-29  1.209E-18
3.908E+03  1.200E-29  1.244E-18
3.873E+03  1.245E-29  1.279E-18
3.837E+03  1.293E-29  1.316E-18
3.802E+03  1.342E-29  1.354E-18
3.767E+03  1.393E-29  1.392E-18
3.733E+03  1.447E-29  1.432E-18
3.698E+03  1.502E-29  1.473E-18
3.664E+03  1.559E-29  1.516E-18
3.631E+03  1.619E-29  1.559E-18
3.597E+03  1.681E-29  1.604E-18
3.565E+03  1.746E-29  1.651E-18
3.532E+03  1.813E-29  1.698E-18
3.499E+03  1.882E-29  1.747E-18
3.467E+03  1.955E-29  1.798E-18
3.436E+03  2.030E-29  1.850E-18
3.404E+03  2.108E-29  1.903E-18
3.373E+03  2.189E-29  1.958E-18
3.342E+03  2.273E-29  2.015E-18
3.311E+03  2.361E-29  2.074E-18
3.281E+03  2.452E-29  2.134E-18
3.251E+03  2.547E-29  2.196E-18
3.221E+03  2.645E-29  2.260E-18
3.192E+03  2.747E-29  2.326E-18
3.162E+03  2.853E-29  2.394E-18
3.133E+03  2.964E-29  2.463E-18
3.105E+03  3.079E-29  2.535E-18
3.076E+03  3.198E-29  2.609E-18
3.048E+03  3.322E-29  2.686E-18
3.020E+03  3.451E-29  2.764E-18
2.992E+03  3.585E-29  2.845E-18
2.965E+03  3.723E-29  2.928E-18
2.938E+03  3.867E-29  3.014E-18
2.911E+03  4.017E-29  3.102E-18
2.884E+03  4.173E-29  3.193E-18
2.858E+03  4.335E-29  3.286E-18
2.831E+03  4.503E-29  3.382E-18
2.805E+03  4.678E-29  3.482E-18
2.780E+03  4.860E-29  3.584E-18
2.754E+03  5.050E-29  3.689E-18
2.729E+03  5.246E-29  3.798E-18
2.704E+03  5.451E-29  3.909E-18
2.679E+03  5.663E-29  4.025E-18
2.655E+03  5.884E-29  4.143E-18
2.630E+03  6.114E-29  4.266E-18
2.606E+03  6.353E-29  4.392E-18
2.582E+03  6.601E-29  4.521E-18
2.559E+03  6.859E-29  4.655E-18
2.535E+03  7.128E-29  4.793E-18
2.512E+03  7.407E-29  4.935E-18
2.489E+03  7.697E-29  5.082E-18
2.466E+03  7.999E-29  5.232E-18
2.443E+03  8.313E-29  5.388E-18
2.421E+03  8.639E-29  5.548E-18
2.399E+03  8.978E-29  5.713E-18
2.377E+03  9.331E-29  5.883E-18
2.355E+03  9.698E-29  6.058E-18
2.333E+03  1.008E-28  6.239E-18
2.312E+03  1.048E-28  6.425E-18
2.291E+03  1.089E-28  6.617E-18
2.270E+03  1.132E-28  6.814E-18
2.249E+03  1.176E-28  7.018E-18
2.228E+03  1.223E-28  7.228E-18
2.208E+03  1.271E-28  7.444E-18
2.188E+03  1.321E-28  7.667E-18
2.168E+03  1.373E-28  7.897E-18
2.148E+03  1.428E-28  8.134E-18
2.128E+03  1.484E-28  8.378E-18
2.109E+03  1.543E-28  8.629E-18
2.089E+03  1.604E-28  8.888E-18
2.070E+03  1.667E-28  9.156E-18
2.051E+03  1.733E-28  9.431E-18
2.032E+03  1.802E-28  9.714E-18
2.014E+03  1.873E-28  1.001E-17
1.995E+03  1.948E-28  1.031E-17
1.977E+03  2.025E-28  1.062E-17
1.959E+03  2.105E-28  1.094E-17
1.941E+03  2.189E-28  1.127E-17
1.923E+03  2.275E-28  1.161E-17
1.905E+03  2.366E-28  1.196E-17
1.888E+03  2.460E-28  1.232E-17
1.871E+03  2.557E-28  1.269E-17
1.854E+03  2.659E-28  1.307E-17
1.837E+03  2.765E-28  1.347E-17
1.820E+03  2.874E-28  1.387E-17
1.803E+03  2.989E-28  1.429E-17
1.786E+03  3.108E-28  1.473E-17
1.770E+03  3.231E-28  1.517E-17
1.754E+03  3.360E-28  1.563E-17
1.738E+03  3.494E-28  1.611E-17
1.722E+03  3.633E-28  1.659E-17
1.706E+03  3.778E-28  1.710E-17
1.690E+03  3.928E-28  1.762E-17
1.675E+03  4.085E-28  1.815E-17
1.660E+03  4.248E-28  1.870E-17
1.644E+03  4.417E-28  1.927E-17
1.629E+03  4.594E-28  1.985E-17
1.614E+03  4.777E-28  2.046E-17
1.600E+03  4.967E-28  2.108E-17
1.585E+03  5.166E-28  2.172E-17
1.570E+03  5.372E-28  2.238E-17
1.556E+03  5.586E-28  2.306E-17
1.542E+03  5.809E-28  2.376E-17
1.528E+03  6.041E-28  2.448E-17
1.514E+03  6.282E-28  2.522E-17
1.500E+03  6.533E-28  2.599E-17
1.486E+03  6.795E-28  2.678E-17
1.472E+03  7.066E-28  2.760E-17
1.459E+03  7.349E-28  2.844E-17
1.445E+03  7.643E-28  2.930E-17
1.432E+03  7.948E-28  3.020E-17
1.419E+03  8.266E-28  3.112E-17
1.406E+03  8.597E-28  3.206E-17
1.393E+03  8.941E-28  3.304E-17
1.380E+03  9.299E-28  3.405E-17
1.368E+03  9.671E-28  3.509E-17
1.355E+03  1.006E-27  3.616E-17
1.343E+03  1.046E-27  3.726E-17
1.330E+03  1.088E-27  3.839E-17
1.318E+03  1.131E-27  3.957E-17
1.306E+03  1.177E-27  4.077E-17
1.294E+03  1.224E-27  4.201E-17
1.282E+03  1.273E-27  4.330E-17
1.271E+03  1.324E-27  4.461E-17
1.259E+03  1.377E-27  4.597E-17
1.247E+03  1.432E-27  4.738E-17
1.236E+03  1.489E-27  4.882E-17
1.225E+03  1.549E-27  5.031E-17
1.213E+03  1.611E-27  5.184E-17
1.202E+03  1.675E-27  5.342E-17
1.191E+03  1.742E-27  5.504E-17
1.180E+03  1.812E-27  5.672E-17
1.169E+03  1.884E-27  5.844E-17
1.159E+03  1.959E-27  6.022E-17
1.148E+03  2.037E-27  6.205E-17
1.138E+03  2.119E-27  6.394E-17
1.127E+03  2.203E-27  6.588E-17
1.117E+03  2.291E-27  6.788E-17
1.107E+03  2.383E-27  6.995E-17
1.096E+03  2.478E-27  7.207E-17
1.086E+03  2.577E-27  7.426E-17
1.076E+03  2.679E-27  7.651E-17
1.067E+03  2.786E-27  7.883E-17
1.057E+03  2.897E-27  8.122E-17
1.047E+03  3.013E-27  8.368E-17
1.038E+03  3.133E-27  8.621E-17
1.028E+03  3.257E-27  8.882E-17
1.019E+03  3.387E-27  9.151E-17
1.009E+03  3.522E-27  9.428E-17
1.000E+03  3.661E-27  9.712E-17
9.908E+02  3.807E-27  1.001E-16
9.817E+02  3.959E-27  1.031E-16
9.727E+02  4.116E-27  1.062E-16
9.638E+02  4.280E-27  1.094E-16
9.550E+02  4.450E-27  1.127E-16
9.462E+02  4.627E-27  1.161E-16
9.376E+02  4.810E-27  1.196E-16
9.290E+02  5.001E-27  1.232E-16
9.204E+02  5.200E-27  1.270E-16
9.120E+02  5.406E-27  1.308E-16
9.036E+02  5.620E-27  1.347E-16
8.954E+02  5.843E-27  1.388E-16
8.872E+02  6.074E-27  1.429E-16
8.790E+02  6.313E-27  1.472E-16
8.710E+02  6.563E-27  1.516E-16
8.630E+02  6.822E-27  1.562E-16
8.551E+02  7.091E-27  1.608E-16
8.472E+02  7.370E-27  1.656E-16
8.395E+02  7.660E-27  1.706E-16
8.318E+02  7.961E-27  1.756E-16
8.241E+02  8.274E-27  1.809E-16
8.166E+02  8.599E-27  1.863E-16
8.091E+02  8.936E-27  1.918E-16
8.017E+02  9.286E-27  1.975E-16
7.943E+02  9.650E-27  2.033E-16
7.870E+02  1.003E-26  2.093E-16
7.798E+02  1.042E-26  2.155E-16
7.727E+02  1.083E-26  2.219E-16
7.656E+02  1.125E-26  2.284E-16
7.586E+02  1.169E-26  2.352E-16
7.516E+02  1.214E-26  2.421E-16
7.447E+02  1.262E-26  2.493E-16
7.379E+02  1.311E-26  2.566E-16
7.311E+02  1.362E-26  2.642E-16
7.244E+02  1.415E-26  2.720E-16
7.178E+02  1.471E-26  2.800E-16
7.112E+02  1.528E-26  2.883E-16
7.047E+02  1.588E-26  2.968E-16
6.982E+02  1.650E-26  3.056E-16
6.918E+02  1.714E-26  3.146E-16
6.855E+02  1.781E-26  3.239E-16
6.792E+02  1.851E-26  3.334E-16
6.730E+02  1.923E-26  3.432E-16
6.668E+02  1.997E-26  3.533E-16
6.607E+02  2.075E-26  3.636E-16
6.546E+02  2.156E-26  3.743E-16
6.486E+02  2.240E-26  3.854E-16
6.427E+02  2.328E-26  3.968E-16
6.368E+02  2.419E-26  4.085E-16
6.310E+02  2.513E-26  4.206E-16
6.252E+02  2.611E-26  4.330E-16
6.194E+02  2.713E-26  4.458E-16
6.138E+02  2.819E-26  4.590E-16
6.081E+02  2.930E-26  4.726E-16
6.026E+02  3.044E-26  4.866E-16
5.970E+02  3.163E-26  5.009E-16
5.916E+02  3.287E-26  5.158E-16
5.861E+02  3.415E-26  5.310E-16
5.808E+02  3.549E-26  5.467E-16
5.754E+02  3.688E-26  5.629E-16
5.702E+02  3.832E-26  5.795E-16
5.649E+02  3.982E-26  5.967E-16
5.598E+02  4.137E-26  6.143E-16
5.546E+02  4.299E-26  6.325E-16
5.495E+02  4.467E-26  6.512E-16
5.445E+02  4.642E-26  6.705E-16
5.395E+02  4.824E-26  6.903E-16
5.346E+02  5.013E-26  7.108E-16
5.297E+02  5.209E-26  7.318E-16
5.248E+02  5.413E-26  7.535E-16
5.200E+02  5.624E-26  7.758E-16
5.152E+02  5.844E-26  7.988E-16
5.105E+02  6.073E-26  8.224E-16
5.058E+02  6.311E-26  8.467E-16
5.012E+02  6.557E-26  8.718E-16
4.966E+02  6.814E-26  8.975E-16
4.920E+02  7.080E-26  9.241E-16
4.875E+02  7.357E-26  9.514E-16
4.831E+02  7.644E-26  9.795E-16
4.786E+02  7.943E-26  1.008E-15
4.742E+02  8.253E-26  1.038E-15
4.699E+02  8.575E-26  1.069E-15
4.656E+02  8.910E-26  1.100E-15
4.613E+02  9.258E-26  1.133E-15
4.571E+02  9.619E-26  1.166E-15
4.529E+02  9.994E-26  1.201E-15
4.487E+02  1.038E-25  1.236E-15
4.446E+02  1.079E-25  1.272E-15
4.406E+02  1.121E-25  1.310E-15
4.365E+02  1.164E-25  1.348E-15
4.325E+02  1.210E-25  1.388E-15
4.285E+02  1.257E-25  1.429E-15
4.246E+02  1.306E-25  1.471E-15
4.207E+02  1.356E-25  1.514E-15
4.169E+02  1.409E-25  1.558E-15
4.130E+02  1.464E-25  1.604E-15
4.093E+02  1.521E-25  1.651E-15
4.055E+02  1.580E-25  1.699E-15
4.018E+02  1.641E-25  1.749E-15
3.981E+02  1.705E-25  1.800E-15
3.945E+02  1.771E-25  1.853E-15
3.908E+02  1.839E-25  1.907E-15
3.873E+02  1.911E-25  1.963E-15
3.837E+02  1.985E-25  2.020E-15
3.802E+02  2.062E-25  2.079E-15
3.767E+02  2.141E-25  2.140E-15
3.733E+02  2.224E-25  2.202E-15
3.698E+02  2.310E-25  2.266E-15
3.664E+02  2.399E-25  2.332E-15
3.631E+02  2.492E-25  2.400E-15
3.597E+02  2.587E-25  2.469E-15
3.565E+02  2.687E-25  2.541E-15
3.532E+02  2.790E-25  2.614E-15
3.499E+02  2.898E-25  2.690E-15
3.467E+02  3.009E-25  2.767E-15
3.436E+02  3.124E-25  2.847E-15
3.404E+02  3.244E-25  2.929E-15
3.373E+02  3.368E-25  3.013E-15
3.342E+02  3.497E-25  3.100E-15
3.311E+02  3.631E-25  3.189E-15
3.281E+02  3.769E-25  3.280E-15
3.251E+02  3.912E-25  3.374E-15
3.221E+02  4.061E-25  3.470E-15
3.192E+02  4.216E-25  3.569E-15
3.162E+02  4.376E-25  3.671E-15
3.133E+02  4.541E-25  3.774E-15
3.105E+02  4.713E-25  3.881E-15
3.076E+02  4.891E-25  3.991E-15
3.048E+02  5.076E-25  4.104E-15
3.020E+02  5.267E-25  4.220E-15
2.992E+02  5.466E-25  4.338E-15
2.965E+02  5.671E-25  4.460E-15
2.938E+02  5.884E-25  4.585E-15
2.911E+02  6.104E-25  4.713E-15
2.884E+02  6.332E-25  4.844E-15
2.858E+02  6.568E-25  4.979E-15
2.831E+02  6.813E-25  5.117E-15
2.805E+02  7.066E-25  5.258E-15
2.780E+02  7.328E-25  5.403E-15
2.754E+02  7.600E-25  5.552E-15
2.729E+02  7.881E-25  5.705E-15
2.704E+02  8.173E-25  5.862E-15
2.679E+02  8.476E-25  6.024E-15
2.655E+02  8.789E-25  6.189E-15
2.630E+02  9.113E-25  6.358E-15
2.606E+02  9.449E-25  6.532E-15
2.582E+02  9.796E-25  6.710E-15
2.559E+02  1.015E-24  6.891E-15
2.535E+02  1.052E-24  7.075E-15
2.512E+02  1.090E-24  7.262E-15
2.489E+02  1.128E-24  7.448E-15
2.466E+02  1.167E-24  7.633E-15
2.443E+02  1.206E-24  7.819E-15
2.421E+02  1.247E-24  8.008E-15
2.399E+02  1.288E-24  8.198E-15
2.377E+02  1.330E-24  8.387E-15
2.355E+02  1.373E-24  8.578E-15
2.333E+02  1.417E-24  8.773E-15
2.312E+02  1.463E-24  8.971E-15
2.291E+02  1.509E-24  9.173E-15
2.270E+02  1.557E-24  9.377E-15
2.249E+02  1.607E-24  9.585E-15
2.228E+02  1.657E-24  9.796E-15
2.208E+02  1.709E-24  1.001E-14
2.188E+02  1.762E-24  1.023E-14
2.168E+02  1.817E-24  1.045E-14
2.148E+02  1.873E-24  1.067E-14
2.128E+02  1.931E-24  1.090E-14
2.109E+02  1.990E-24  1.113E-14
2.089E+02  2.050E-24  1.136E-14
2.070E+02  2.112E-24  1.160E-14
2.051E+02  2.176E-24  1.184E-14
2.032E+02  2.241E-24  1.208E-14
2.014E+02  2.307E-24  1.233E-14
1.995E+02  2.376E-24  1.257E-14
1.977E+02  2.446E-24  1.282E-14
1.959E+02  2.517E-24  1.308E-14
1.941E+02  2.590E-24  1.333E-14
1.923E+02  2.665E-24  1.359E-14
1.905E+02  2.741E-24  1.386E-14
1.888E+02  2.820E-24  1.412E-14
1.871E+02  2.900E-24  1.439E-14
1.854E+02  2.981E-24  1.466E-14
1.837E+02  3.065E-24  1.493E-14
1.820E+02  3.151E-24  1.521E-14
1.803E+02  3.238E-24  1.549E-14
1.786E+02  3.327E-24  1.577E-14
1.770E+02  3.418E-24  1.605E-14
1.754E+02  3.511E-24  1.633E-14
1.738E+02  3.606E-24  1.662E-14
1.722E+02  3.703E-24  1.691E-14
1.706E+02  3.802E-24  1.721E-14
1.690E+02  3.903E-24  1.750E-14
1.675E+02  4.007E-24  1.780E-14
1.660E+02  4.112E-24  1.810E-14
1.644E+02  4.220E-24  1.841E-14
1.629E+02  4.330E-24  1.871E-14
1.614E+02  4.443E-24  1.902E-14
1.600E+02  4.557E-24  1.934E-14
1.585E+02  4.675E-24  1.965E-14
1.570E+02  4.795E-24  1.998E-14
1.556E+02  4.919E-24  2.030E-14
1.542E+02  5.045E-24  2.063E-14
1.528E+02  5.174E-24  2.097E-14
1.514E+02  5.307E-24  2.131E-14
1.500E+02  5.443E-24  2.165E-14
1.486E+02  5.583E-24  2.201E-14
1.472E+02  5.727E-24  2.236E-14
1.459E+02  5.873E-24  2.273E-14
1.445E+02  6.023E-24  2.309E-14
1.432E+02  6.173E-24  2.345E-14
1.419E+02  6.323E-24  2.380E-14
1.406E+02  6.471E-24  2.414E-14
1.393E+02  6.614E-24  2.444E-14
1.380E+02  6.752E-24  2.472E-14
1.368E+02  6.883E-24  2.497E-14
1.355E+02  7.010E-24  2.520E-14
1.343E+02  7.134E-24  2.541E-14
1.330E+02  7.257E-24  2.561E-14
1.318E+02  7.380E-24  2.581E-14
1.306E+02  7.505E-24  2.600E-14
1.294E+02  7.633E-24  2.620E-14
1.282E+02  7.763E-24  2.640E-14
1.271E+02  7.894E-24  2.661E-14
1.259E+02  8.029E-24  2.681E-14
1.247E+02  8.166E-24  2.702E-14
1.236E+02  8.305E-24  2.723E-14
1.225E+02  8.446E-24  2.744E-14
1.213E+02  8.590E-24  2.765E-14
1.202E+02  8.735E-24  2.786E-14
1.191E+02  8.881E-24  2.806E-14
1.180E+02  9.029E-24  2.827E-14
1.169E+02  9.177E-24  2.847E-14
1.159E+02  9.325E-24  2.866E-14
1.148E+02  9.475E-24  2.886E-14
1.138E+02  9.626E-24  2.905E-14
1.127E+02  9.778E-24  2.924E-14
1.117E+02  9.931E-24  2.942E-14
1.107E+02  1.009E-23  2.961E-14
1.096E+02  1.024E-23  2.978E-14
1.086E+02  1.040E-23  2.996E-14
1.076E+02  1.055E-23  3.013E-14
1.067E+02  1.071E-23  3.029E-14
1.057E+02  1.086E-23  3.045E-14
1.047E+02  1.102E-23  3.061E-14
1.038E+02  1.118E-23  3.076E-14
1.028E+02  1.133E-23  3.090E-14
1.019E+02  1.148E-23  3.103E-14
1.009E+02  1.164E-23  3.116E-14
1.000E+02  1.179E-23  3.128E-14
9.908E+01  1.194E-23  3.139E-14
9.817E+01  1.209E-23  3.149E-14
9.727E+01  1.224E-23  3.159E-14
9.638E+01  1.239E-23  3.168E-14
9.550E+01  1.254E-23  3.176E-14
9.462E+01  1.268E-23  3.184E-14
9.376E+01  1.283E-23  3.190E-14
9.290E+01  1.297E-23  3.196E-14
9.204E+01  1.311E-23  3.201E-14
9.120E+01  1.325E-23  3.206E-14
9.036E+01  1.339E-23  3.209E-14
8.954E+01  1.352E-23  3.212E-14
8.872E+01  1.366E-23  3.214E-14
8.790E+01  1.379E-23  3.215E-14
8.710E+01  1.392E-23  3.215E-14
8.630E+01  1.405E-23  3.215E-14
8.551E+01  1.417E-23  3.214E-14
8.472E+01  1.429E-23  3.212E-14
8.395E+01  1.441E-23  3.209E-14
8.318E+01  1.453E-23  3.205E-14
8.241E+01  1.464E-23  3.200E-14
8.166E+01  1.475E-23  3.195E-14
8.091E+01  1.486E-23  3.189E-14
8.017E+01  1.496E-23  3.182E-14
7.943E+01  1.507E-23  3.174E-14
7.870E+01  1.516E-23  3.166E-14
7.798E+01  1.526E-23  3.156E-14
7.727E+01  1.535E-23  3.146E-14
7.656E+01  1.544E-23  3.135E-14
7.586E+01  1.552E-23  3.123E-14
7.516E+01  1.560E-23  3.110E-14
7.447E+01  1.568E-23  3.097E-14
7.379E+01  1.575E-23  3.082E-14
7.311E+01  1.581E-23  3.067E-14
7.244E+01  1.588E-23  3.051E-14
7.178E+01  1.593E-23  3.034E-14
7.112E+01  1.599E-23  3.016E-14
7.047E+01  1.604E-23  2.998E-14
6.982E+01  1.609E-23  2.980E-14
6.918E+01  1.614E-23  2.961E-14
6.855E+01  1.618E-23  2.941E-14
6.792E+01  1.621E-23  2.921E-14
6.730E+01  1.624E-23  2.899E-14
6.668E+01  1.627E-23  2.877E-14
6.607E+01  1.629E-23  2.855E-14
6.546E+01  1.631E-23  2.832E-14
6.486E+01  1.632E-23  2.809E-14
6.427E+01  1.633E-23  2.785E-14
6.368E+01  1.634E-23  2.760E-14
6.310E+01  1.634E-23  2.735E-14
6.252E+01  1.634E-23  2.710E-14
6.194E+01  1.634E-23  2.684E-14
6.138E+01  1.633E-23  2.658E-14
6.081E+01  1.632E-23  2.632E-14
6.026E+01  1.630E-23  2.605E-14
5.970E+01  1.628E-23  2.578E-14
5.916E+01  1.625E-23  2.550E-14
5.861E+01  1.622E-23  2.522E-14
5.808E+01  1.619E-23  2.494E-14
5.754E+01  1.615E-23  2.465E-14
5.702E+01  1.611E-23  2.437E-14
5.649E+01  1.607E-23  2.408E-14
5.598E+01  1.602E-23  2.379E-14
5.546E+01  1.597E-23  2.350E-14
5.495E+01  1.592E-23  2.321E-14
5.445E+01  1.586E-23  2.291E-14
5.395E+01  1.581E-23  2.262E-14
5.346E+01  1.575E-23  2.233E-14
5.297E+01  1.568E-23  2.203E-14
5.248E+01  1.562E-23  2.174E-14
5.200E+01  1.555E-23  2.144E-14
5.152E+01  1.547E-23  2.115E-14
5.105E+01  1.540E-23  2.085E-14
5.058E+01  1.532E-23  2.056E-14
5.012E+01  1.524E-23  2.026E-14
4.966E+01  1.516E-23  1.996E-14
