Dust emission from Draine & Li (2007): ApJ 657, 810-837
================================================================
        10 = grain model
 4.000E-08 4.000E-01 5.000E-06 = a_01 (cm) , sigma_1 , b_C1/0.92
 2.500E-07 4.000E-01 5.000E-06 = a_02 (cm) , sigma_2 , b_C2/0.92
 8.000E-01 8.000E-01 1.000E+00 = Umin , Umax, beta (dN/dU propto U^{-beta})
 8.000E-01 = <U> 
     mmp83 = radfield
 8.370E-25 = power/H (erg s-1)
 band   nu*P_nu(band) j_nu(band)
 (um)   (erg s-1 H-1)(Jy cm2 sr-1 H-1)
1.270E+00  2.318E-27  7.809E-20 COBE-DIRBE
2.220E+00  3.120E-27  1.837E-19 COBE-DIRBE
3.530E+00  1.640E-26  1.536E-18 COBE-DIRBE
4.880E+00  7.893E-27  1.022E-18 COBE-DIRBE
1.229E+01  7.397E-26  2.412E-17 COBE-DIRBE
2.079E+01  7.345E-26  4.050E-17 COBE-DIRBE
5.599E+01  1.487E-25  2.208E-16 COBE-DIRBE
9.770E+01  3.834E-25  9.936E-16 COBE-DIRBE
1.479E+02  5.019E-25  1.969E-15 COBE-DIRBE
2.479E+02  2.604E-25  1.712E-15 COBE-DIRBE
1.200E+01  7.680E-26  2.445E-17 IRAS
2.500E+01  7.284E-26  4.830E-17 IRAS
6.000E+01  1.642E-25  2.614E-16 IRAS
1.000E+02  3.976E-25  1.055E-15 IRAS
3.550E+00  1.895E-26  1.784E-18 SST-IRAC
4.493E+00  5.782E-27  6.891E-19 SST-IRAC
5.731E+00  4.288E-26  6.519E-18 SST-IRAC
7.872E+00  1.033E-25  2.157E-17 SST-IRAC
2.368E+01  6.662E-26  4.185E-17 SST-MIPS
7.142E+01  1.990E-25  3.770E-16 SST-MIPS
1.559E+02  4.828E-25  1.996E-15 SST-MIPS
1.600E+01  6.412E-26  2.721E-17 SST-IRSPU
2.200E+01  6.928E-26  4.043E-17 SST-IRSPU











lambda    nu*dP/dnu     j_nu
 (um)   (erg s-1 H-1)(Jy cm2 sr-1 H-1)
1.000E+04  1.728E-31  4.583E-20
9.908E+03  1.791E-31  4.706E-20
9.817E+03  1.856E-31  4.832E-20
9.727E+03  1.923E-31  4.962E-20
9.638E+03  1.993E-31  5.094E-20
9.550E+03  2.065E-31  5.231E-20
9.462E+03  2.140E-31  5.371E-20
9.376E+03  2.218E-31  5.515E-20
9.290E+03  2.298E-31  5.663E-20
9.204E+03  2.381E-31  5.814E-20
9.120E+03  2.468E-31  5.970E-20
9.036E+03  2.557E-31  6.130E-20
8.954E+03  2.650E-31  6.294E-20
8.872E+03  2.745E-31  6.461E-20
8.790E+03  2.845E-31  6.633E-20
8.710E+03  2.947E-31  6.809E-20
8.630E+03  3.054E-31  6.990E-20
8.551E+03  3.164E-31  7.177E-20
8.472E+03  3.279E-31  7.368E-20
8.395E+03  3.397E-31  7.565E-20
8.318E+03  3.520E-31  7.767E-20
8.241E+03  3.648E-31  7.974E-20
8.166E+03  3.780E-31  8.188E-20
8.091E+03  3.917E-31  8.407E-20
8.017E+03  4.059E-31  8.632E-20
7.943E+03  4.207E-31  8.863E-20
7.870E+03  4.359E-31  9.101E-20
7.798E+03  4.518E-31  9.346E-20
7.727E+03  4.682E-31  9.597E-20
7.656E+03  4.853E-31  9.855E-20
7.586E+03  5.029E-31  1.012E-19
7.516E+03  5.213E-31  1.039E-19
7.447E+03  5.403E-31  1.067E-19
7.379E+03  5.600E-31  1.096E-19
7.311E+03  5.804E-31  1.126E-19
7.244E+03  6.016E-31  1.156E-19
7.178E+03  6.235E-31  1.187E-19
7.112E+03  6.463E-31  1.219E-19
7.047E+03  6.700E-31  1.252E-19
6.982E+03  6.944E-31  1.286E-19
6.918E+03  7.198E-31  1.321E-19
6.855E+03  7.461E-31  1.357E-19
6.792E+03  7.734E-31  1.393E-19
6.730E+03  8.017E-31  1.431E-19
6.668E+03  8.310E-31  1.470E-19
6.607E+03  8.615E-31  1.510E-19
6.546E+03  8.930E-31  1.551E-19
6.486E+03  9.258E-31  1.593E-19
6.427E+03  9.598E-31  1.636E-19
6.368E+03  9.950E-31  1.681E-19
6.310E+03  1.032E-30  1.726E-19
6.252E+03  1.069E-30  1.773E-19
6.194E+03  1.109E-30  1.822E-19
6.138E+03  1.150E-30  1.872E-19
6.081E+03  1.192E-30  1.923E-19
6.026E+03  1.236E-30  1.975E-19
5.970E+03  1.281E-30  2.029E-19
5.916E+03  1.329E-30  2.085E-19
5.861E+03  1.378E-30  2.142E-19
5.808E+03  1.428E-30  2.201E-19
5.754E+03  1.481E-30  2.261E-19
5.702E+03  1.536E-30  2.323E-19
5.649E+03  1.593E-30  2.387E-19
5.598E+03  1.652E-30  2.452E-19
5.546E+03  1.713E-30  2.520E-19
5.495E+03  1.776E-30  2.589E-19
5.445E+03  1.842E-30  2.660E-19
5.395E+03  1.910E-30  2.734E-19
5.346E+03  1.981E-30  2.809E-19
5.297E+03  2.055E-30  2.887E-19
5.248E+03  2.131E-30  2.966E-19
5.200E+03  2.210E-30  3.048E-19
5.152E+03  2.292E-30  3.132E-19
5.105E+03  2.377E-30  3.219E-19
5.058E+03  2.466E-30  3.308E-19
5.012E+03  2.557E-30  3.400E-19
4.966E+03  2.652E-30  3.494E-19
4.920E+03  2.751E-30  3.590E-19
4.875E+03  2.853E-30  3.690E-19
4.831E+03  2.960E-30  3.792E-19
4.786E+03  3.070E-30  3.897E-19
4.742E+03  3.184E-30  4.006E-19
4.699E+03  3.303E-30  4.117E-19
4.656E+03  3.426E-30  4.231E-19
4.613E+03  3.554E-30  4.349E-19
4.571E+03  3.687E-30  4.470E-19
4.529E+03  3.825E-30  4.595E-19
4.487E+03  3.968E-30  4.723E-19
4.446E+03  4.116E-30  4.855E-19
4.406E+03  4.270E-30  4.990E-19
4.365E+03  4.430E-30  5.130E-19
4.325E+03  4.596E-30  5.273E-19
4.285E+03  4.769E-30  5.421E-19
4.246E+03  4.948E-30  5.573E-19
4.207E+03  5.133E-30  5.729E-19
4.169E+03  5.326E-30  5.890E-19
4.130E+03  5.526E-30  6.055E-19
4.093E+03  5.734E-30  6.225E-19
4.055E+03  5.950E-30  6.400E-19
4.018E+03  6.173E-30  6.580E-19
3.981E+03  6.406E-30  6.764E-19
3.945E+03  6.646E-30  6.954E-19
3.908E+03  6.896E-30  7.149E-19
3.873E+03  7.156E-30  7.350E-19
3.837E+03  7.425E-30  7.557E-19
3.802E+03  7.705E-30  7.770E-19
3.767E+03  7.995E-30  7.989E-19
3.733E+03  8.297E-30  8.214E-19
3.698E+03  8.610E-30  8.446E-19
3.664E+03  8.935E-30  8.685E-19
3.631E+03  9.273E-30  8.931E-19
3.597E+03  9.623E-30  9.183E-19
3.565E+03  9.987E-30  9.443E-19
3.532E+03  1.037E-29  9.711E-19
3.499E+03  1.076E-29  9.986E-19
3.467E+03  1.117E-29  1.027E-18
3.436E+03  1.159E-29  1.056E-18
3.404E+03  1.203E-29  1.086E-18
3.373E+03  1.249E-29  1.117E-18
3.342E+03  1.296E-29  1.149E-18
3.311E+03  1.345E-29  1.182E-18
3.281E+03  1.396E-29  1.215E-18
3.251E+03  1.449E-29  1.250E-18
3.221E+03  1.505E-29  1.286E-18
3.192E+03  1.562E-29  1.322E-18
3.162E+03  1.621E-29  1.360E-18
3.133E+03  1.683E-29  1.399E-18
3.105E+03  1.747E-29  1.439E-18
3.076E+03  1.814E-29  1.480E-18
3.048E+03  1.883E-29  1.522E-18
3.020E+03  1.955E-29  1.566E-18
2.992E+03  2.030E-29  1.611E-18
2.965E+03  2.107E-29  1.657E-18
2.938E+03  2.187E-29  1.704E-18
2.911E+03  2.271E-29  1.753E-18
2.884E+03  2.357E-29  1.803E-18
2.858E+03  2.447E-29  1.855E-18
2.831E+03  2.540E-29  1.908E-18
2.805E+03  2.637E-29  1.963E-18
2.780E+03  2.738E-29  2.019E-18
2.754E+03  2.843E-29  2.077E-18
2.729E+03  2.952E-29  2.137E-18
2.704E+03  3.065E-29  2.198E-18
2.679E+03  3.182E-29  2.261E-18
2.655E+03  3.304E-29  2.326E-18
2.630E+03  3.430E-29  2.393E-18
2.606E+03  3.562E-29  2.462E-18
2.582E+03  3.699E-29  2.533E-18
2.559E+03  3.840E-29  2.606E-18
2.535E+03  3.988E-29  2.682E-18
2.512E+03  4.141E-29  2.759E-18
2.489E+03  4.300E-29  2.839E-18
2.466E+03  4.465E-29  2.921E-18
2.443E+03  4.637E-29  3.005E-18
2.421E+03  4.815E-29  3.092E-18
2.399E+03  5.001E-29  3.182E-18
2.377E+03  5.193E-29  3.274E-18
2.355E+03  5.393E-29  3.369E-18
2.333E+03  5.601E-29  3.467E-18
2.312E+03  5.817E-29  3.567E-18
2.291E+03  6.041E-29  3.671E-18
2.270E+03  6.274E-29  3.777E-18
2.249E+03  6.516E-29  3.887E-18
2.228E+03  6.767E-29  4.000E-18
2.208E+03  7.028E-29  4.116E-18
2.188E+03  7.299E-29  4.236E-18
2.168E+03  7.581E-29  4.359E-18
2.148E+03  7.873E-29  4.486E-18
2.128E+03  8.178E-29  4.616E-18
2.109E+03  8.493E-29  4.751E-18
2.089E+03  8.821E-29  4.889E-18
2.070E+03  9.162E-29  5.031E-18
2.051E+03  9.516E-29  5.178E-18
2.032E+03  9.884E-29  5.328E-18
2.014E+03  1.027E-28  5.484E-18
1.995E+03  1.066E-28  5.643E-18
1.977E+03  1.107E-28  5.808E-18
1.959E+03  1.150E-28  5.977E-18
1.941E+03  1.195E-28  6.151E-18
1.923E+03  1.241E-28  6.330E-18
1.905E+03  1.289E-28  6.514E-18
1.888E+03  1.339E-28  6.704E-18
1.871E+03  1.390E-28  6.899E-18
1.854E+03  1.444E-28  7.100E-18
1.837E+03  1.500E-28  7.307E-18
1.820E+03  1.558E-28  7.520E-18
1.803E+03  1.618E-28  7.740E-18
1.786E+03  1.681E-28  7.965E-18
1.770E+03  1.746E-28  8.197E-18
1.754E+03  1.813E-28  8.436E-18
1.738E+03  1.884E-28  8.682E-18
1.722E+03  1.956E-28  8.936E-18
1.706E+03  2.032E-28  9.196E-18
1.690E+03  2.111E-28  9.464E-18
1.675E+03  2.192E-28  9.740E-18
1.660E+03  2.277E-28  1.002E-17
1.644E+03  2.365E-28  1.032E-17
1.629E+03  2.456E-28  1.062E-17
1.614E+03  2.551E-28  1.093E-17
1.600E+03  2.650E-28  1.124E-17
1.585E+03  2.752E-28  1.157E-17
1.570E+03  2.859E-28  1.191E-17
1.556E+03  2.969E-28  1.225E-17
1.542E+03  3.084E-28  1.261E-17
1.528E+03  3.203E-28  1.298E-17
1.514E+03  3.326E-28  1.335E-17
1.500E+03  3.455E-28  1.374E-17
1.486E+03  3.588E-28  1.414E-17
1.472E+03  3.727E-28  1.455E-17
1.459E+03  3.870E-28  1.498E-17
1.445E+03  4.020E-28  1.541E-17
1.432E+03  4.175E-28  1.586E-17
1.419E+03  4.336E-28  1.632E-17
1.406E+03  4.503E-28  1.679E-17
1.393E+03  4.677E-28  1.728E-17
1.380E+03  4.857E-28  1.778E-17
1.368E+03  5.044E-28  1.830E-17
1.355E+03  5.238E-28  1.883E-17
1.343E+03  5.440E-28  1.937E-17
1.330E+03  5.649E-28  1.994E-17
1.318E+03  5.866E-28  2.051E-17
1.306E+03  6.092E-28  2.111E-17
1.294E+03  6.326E-28  2.172E-17
1.282E+03  6.569E-28  2.234E-17
1.271E+03  6.821E-28  2.299E-17
1.259E+03  7.082E-28  2.365E-17
1.247E+03  7.354E-28  2.433E-17
1.236E+03  7.636E-28  2.503E-17
1.225E+03  7.928E-28  2.575E-17
1.213E+03  8.232E-28  2.649E-17
1.202E+03  8.546E-28  2.726E-17
1.191E+03  8.873E-28  2.804E-17
1.180E+03  9.212E-28  2.884E-17
1.169E+03  9.564E-28  2.967E-17
1.159E+03  9.929E-28  3.052E-17
1.148E+03  1.031E-27  3.139E-17
1.138E+03  1.070E-27  3.229E-17
1.127E+03  1.111E-27  3.321E-17
1.117E+03  1.153E-27  3.416E-17
1.107E+03  1.197E-27  3.513E-17
1.096E+03  1.242E-27  3.613E-17
1.086E+03  1.289E-27  3.716E-17
1.076E+03  1.338E-27  3.821E-17
1.067E+03  1.389E-27  3.930E-17
1.057E+03  1.441E-27  4.041E-17
1.047E+03  1.496E-27  4.155E-17
1.038E+03  1.552E-27  4.273E-17
1.028E+03  1.611E-27  4.393E-17
1.019E+03  1.672E-27  4.517E-17
1.009E+03  1.735E-27  4.644E-17
1.000E+03  1.800E-27  4.774E-17
9.908E+02  1.868E-27  4.909E-17
9.817E+02  1.938E-27  5.047E-17
9.727E+02  2.011E-27  5.188E-17
9.638E+02  2.086E-27  5.334E-17
9.550E+02  2.164E-27  5.483E-17
9.462E+02  2.245E-27  5.636E-17
9.376E+02  2.329E-27  5.793E-17
9.290E+02  2.416E-27  5.955E-17
9.204E+02  2.507E-27  6.120E-17
9.120E+02  2.600E-27  6.290E-17
9.036E+02  2.697E-27  6.464E-17
8.954E+02  2.797E-27  6.643E-17
8.872E+02  2.901E-27  6.826E-17
8.790E+02  3.008E-27  7.014E-17
8.710E+02  3.119E-27  7.207E-17
8.630E+02  3.235E-27  7.405E-17
8.551E+02  3.354E-27  7.607E-17
8.472E+02  3.477E-27  7.815E-17
8.395E+02  3.605E-27  8.028E-17
8.318E+02  3.737E-27  8.246E-17
8.241E+02  3.874E-27  8.470E-17
8.166E+02  4.016E-27  8.699E-17
8.091E+02  4.162E-27  8.933E-17
8.017E+02  4.314E-27  9.174E-17
7.943E+02  4.471E-27  9.420E-17
7.870E+02  4.633E-27  9.673E-17
7.798E+02  4.801E-27  9.932E-17
7.727E+02  4.975E-27  1.020E-16
7.656E+02  5.155E-27  1.047E-16
7.586E+02  5.341E-27  1.075E-16
7.516E+02  5.533E-27  1.103E-16
7.447E+02  5.733E-27  1.132E-16
7.379E+02  5.939E-27  1.163E-16
7.311E+02  6.153E-27  1.193E-16
7.244E+02  6.374E-27  1.225E-16
7.178E+02  6.603E-27  1.257E-16
7.112E+02  6.840E-27  1.290E-16
7.047E+02  7.085E-27  1.324E-16
6.982E+02  7.339E-27  1.359E-16
6.918E+02  7.601E-27  1.395E-16
6.855E+02  7.872E-27  1.431E-16
6.792E+02  8.153E-27  1.469E-16
6.730E+02  8.443E-27  1.507E-16
6.668E+02  8.742E-27  1.546E-16
6.607E+02  9.051E-27  1.586E-16
6.546E+02  9.372E-27  1.627E-16
6.486E+02  9.705E-27  1.670E-16
6.427E+02  1.005E-26  1.713E-16
6.368E+02  1.041E-26  1.758E-16
6.310E+02  1.077E-26  1.803E-16
6.252E+02  1.116E-26  1.850E-16
6.194E+02  1.155E-26  1.898E-16
6.138E+02  1.196E-26  1.947E-16
6.081E+02  1.238E-26  1.997E-16
6.026E+02  1.282E-26  2.048E-16
5.970E+02  1.327E-26  2.101E-16
5.916E+02  1.373E-26  2.155E-16
5.861E+02  1.421E-26  2.210E-16
5.808E+02  1.471E-26  2.266E-16
5.754E+02  1.523E-26  2.324E-16
5.702E+02  1.576E-26  2.383E-16
5.649E+02  1.631E-26  2.444E-16
5.598E+02  1.688E-26  2.506E-16
5.546E+02  1.747E-26  2.570E-16
5.495E+02  1.807E-26  2.635E-16
5.445E+02  1.870E-26  2.701E-16
5.395E+02  1.935E-26  2.769E-16
5.346E+02  2.002E-26  2.839E-16
5.297E+02  2.071E-26  2.910E-16
5.248E+02  2.143E-26  2.983E-16
5.200E+02  2.217E-26  3.057E-16
5.152E+02  2.293E-26  3.134E-16
5.105E+02  2.372E-26  3.212E-16
5.058E+02  2.453E-26  3.291E-16
5.012E+02  2.537E-26  3.373E-16
4.966E+02  2.624E-26  3.456E-16
4.920E+02  2.713E-26  3.541E-16
4.875E+02  2.806E-26  3.628E-16
4.831E+02  2.901E-26  3.717E-16
4.786E+02  2.999E-26  3.808E-16
4.742E+02  3.101E-26  3.901E-16
4.699E+02  3.205E-26  3.995E-16
4.656E+02  3.313E-26  4.092E-16
4.613E+02  3.425E-26  4.191E-16
4.571E+02  3.540E-26  4.292E-16
4.529E+02  3.658E-26  4.395E-16
4.487E+02  3.780E-26  4.500E-16
4.446E+02  3.906E-26  4.607E-16
4.406E+02  4.036E-26  4.717E-16
4.365E+02  4.170E-26  4.828E-16
4.325E+02  4.308E-26  4.942E-16
4.285E+02  4.450E-26  5.058E-16
4.246E+02  4.596E-26  5.177E-16
4.207E+02  4.747E-26  5.298E-16
4.169E+02  4.902E-26  5.421E-16
4.130E+02  5.062E-26  5.546E-16
4.093E+02  5.227E-26  5.674E-16
4.055E+02  5.397E-26  5.805E-16
4.018E+02  5.571E-26  5.938E-16
3.981E+02  5.751E-26  6.073E-16
3.945E+02  5.937E-26  6.212E-16
3.908E+02  6.127E-26  6.353E-16
3.873E+02  6.324E-26  6.496E-16
3.837E+02  6.526E-26  6.642E-16
3.802E+02  6.734E-26  6.791E-16
3.767E+02  6.947E-26  6.942E-16
3.733E+02  7.166E-26  7.095E-16
3.698E+02  7.392E-26  7.252E-16
3.664E+02  7.624E-26  7.411E-16
3.631E+02  7.863E-26  7.573E-16
3.597E+02  8.107E-26  7.737E-16
3.565E+02  8.359E-26  7.904E-16
3.532E+02  8.618E-26  8.073E-16
3.499E+02  8.883E-26  8.246E-16
3.467E+02  9.156E-26  8.421E-16
3.436E+02  9.436E-26  8.599E-16
3.404E+02  9.723E-26  8.779E-16
3.373E+02  1.002E-25  8.962E-16
3.342E+02  1.032E-25  9.148E-16
3.311E+02  1.063E-25  9.336E-16
3.281E+02  1.095E-25  9.527E-16
3.251E+02  1.127E-25  9.720E-16
3.221E+02  1.161E-25  9.916E-16
3.192E+02  1.195E-25  1.011E-15
3.162E+02  1.230E-25  1.032E-15
3.133E+02  1.266E-25  1.052E-15
3.105E+02  1.302E-25  1.072E-15
3.076E+02  1.340E-25  1.093E-15
3.048E+02  1.378E-25  1.114E-15
3.020E+02  1.418E-25  1.136E-15
2.992E+02  1.458E-25  1.157E-15
2.965E+02  1.499E-25  1.179E-15
2.938E+02  1.541E-25  1.201E-15
2.911E+02  1.584E-25  1.223E-15
2.884E+02  1.628E-25  1.245E-15
2.858E+02  1.672E-25  1.268E-15
2.831E+02  1.718E-25  1.290E-15
2.805E+02  1.765E-25  1.313E-15
2.780E+02  1.812E-25  1.336E-15
2.754E+02  1.861E-25  1.360E-15
2.729E+02  1.911E-25  1.383E-15
2.704E+02  1.961E-25  1.407E-15
2.679E+02  2.013E-25  1.431E-15
2.655E+02  2.066E-25  1.455E-15
2.630E+02  2.120E-25  1.479E-15
2.606E+02  2.174E-25  1.503E-15
2.582E+02  2.230E-25  1.528E-15
2.559E+02  2.286E-25  1.552E-15
2.535E+02  2.343E-25  1.576E-15
2.512E+02  2.401E-25  1.599E-15
2.489E+02  2.457E-25  1.622E-15
2.466E+02  2.513E-25  1.644E-15
2.443E+02  2.569E-25  1.665E-15
2.421E+02  2.625E-25  1.686E-15
2.399E+02  2.681E-25  1.706E-15
2.377E+02  2.735E-25  1.725E-15
2.355E+02  2.790E-25  1.743E-15
2.333E+02  2.846E-25  1.762E-15
2.312E+02  2.902E-25  1.780E-15
2.291E+02  2.958E-25  1.797E-15
2.270E+02  3.014E-25  1.815E-15
2.249E+02  3.071E-25  1.832E-15
2.228E+02  3.128E-25  1.849E-15
2.208E+02  3.185E-25  1.865E-15
2.188E+02  3.242E-25  1.881E-15
2.168E+02  3.299E-25  1.897E-15
2.148E+02  3.357E-25  1.912E-15
2.128E+02  3.414E-25  1.927E-15
2.109E+02  3.471E-25  1.942E-15
2.089E+02  3.529E-25  1.956E-15
2.070E+02  3.586E-25  1.969E-15
2.051E+02  3.642E-25  1.982E-15
2.032E+02  3.699E-25  1.994E-15
2.014E+02  3.756E-25  2.006E-15
1.995E+02  3.812E-25  2.017E-15
1.977E+02  3.868E-25  2.028E-15
1.959E+02  3.923E-25  2.038E-15
1.941E+02  3.978E-25  2.048E-15
1.923E+02  4.032E-25  2.057E-15
1.905E+02  4.086E-25  2.065E-15
1.888E+02  4.140E-25  2.073E-15
1.871E+02  4.193E-25  2.080E-15
1.854E+02  4.245E-25  2.087E-15
1.837E+02  4.296E-25  2.093E-15
1.820E+02  4.347E-25  2.098E-15
1.803E+02  4.397E-25  2.103E-15
1.786E+02  4.446E-25  2.107E-15
1.770E+02  4.495E-25  2.110E-15
1.754E+02  4.542E-25  2.113E-15
1.738E+02  4.589E-25  2.115E-15
1.722E+02  4.635E-25  2.117E-15
1.706E+02  4.680E-25  2.118E-15
1.690E+02  4.724E-25  2.118E-15
1.675E+02  4.767E-25  2.118E-15
1.660E+02  4.809E-25  2.117E-15
1.644E+02  4.850E-25  2.116E-15
1.629E+02  4.891E-25  2.114E-15
1.614E+02  4.931E-25  2.111E-15
1.600E+02  4.969E-25  2.109E-15
1.585E+02  5.007E-25  2.105E-15
1.570E+02  5.045E-25  2.101E-15
1.556E+02  5.082E-25  2.097E-15
1.542E+02  5.118E-25  2.093E-15
1.528E+02  5.155E-25  2.089E-15
1.514E+02  5.190E-25  2.084E-15
1.500E+02  5.226E-25  2.079E-15
1.486E+02  5.261E-25  2.074E-15
1.472E+02  5.295E-25  2.068E-15
1.459E+02  5.329E-25  2.062E-15
1.445E+02  5.360E-25  2.055E-15
1.432E+02  5.388E-25  2.047E-15
1.419E+02  5.410E-25  2.037E-15
1.406E+02  5.426E-25  2.024E-15
1.393E+02  5.432E-25  2.007E-15
1.380E+02  5.429E-25  1.988E-15
1.368E+02  5.416E-25  1.965E-15
1.355E+02  5.395E-25  1.939E-15
1.343E+02  5.369E-25  1.912E-15
1.330E+02  5.339E-25  1.884E-15
1.318E+02  5.308E-25  1.856E-15
1.306E+02  5.275E-25  1.828E-15
1.294E+02  5.242E-25  1.800E-15
1.282E+02  5.209E-25  1.772E-15
1.271E+02  5.175E-25  1.744E-15
1.259E+02  5.141E-25  1.717E-15
1.247E+02  5.107E-25  1.690E-15
1.236E+02  5.073E-25  1.663E-15
1.225E+02  5.038E-25  1.637E-15
1.213E+02  5.003E-25  1.610E-15
1.202E+02  4.967E-25  1.584E-15
1.191E+02  4.930E-25  1.558E-15
1.180E+02  4.892E-25  1.532E-15
1.169E+02  4.853E-25  1.505E-15
1.159E+02  4.812E-25  1.479E-15
1.148E+02  4.771E-25  1.453E-15
1.138E+02  4.729E-25  1.427E-15
1.127E+02  4.685E-25  1.401E-15
1.117E+02  4.642E-25  1.375E-15
1.107E+02  4.597E-25  1.350E-15
1.096E+02  4.552E-25  1.324E-15
1.086E+02  4.506E-25  1.299E-15
1.076E+02  4.459E-25  1.273E-15
1.067E+02  4.411E-25  1.248E-15
1.057E+02  4.362E-25  1.223E-15
1.047E+02  4.312E-25  1.198E-15
1.038E+02  4.262E-25  1.173E-15
1.028E+02  4.210E-25  1.148E-15
1.019E+02  4.158E-25  1.123E-15
1.009E+02  4.105E-25  1.099E-15
1.000E+02  4.051E-25  1.075E-15
9.908E+01  3.996E-25  1.050E-15
9.817E+01  3.941E-25  1.026E-15
9.727E+01  3.885E-25  1.002E-15
9.638E+01  3.829E-25  9.790E-16
9.550E+01  3.773E-25  9.558E-16
9.462E+01  3.716E-25  9.328E-16
9.376E+01  3.659E-25  9.101E-16
9.290E+01  3.602E-25  8.877E-16
9.204E+01  3.545E-25  8.655E-16
9.120E+01  3.488E-25  8.437E-16
9.036E+01  3.430E-25  8.223E-16
8.954E+01  3.373E-25  8.011E-16
8.872E+01  3.316E-25  7.803E-16
8.790E+01  3.259E-25  7.599E-16
8.710E+01  3.202E-25  7.398E-16
8.630E+01  3.146E-25  7.202E-16
8.551E+01  3.090E-25  7.009E-16
8.472E+01  3.034E-25  6.817E-16
8.395E+01  2.978E-25  6.632E-16
8.318E+01  2.924E-25  6.450E-16
8.241E+01  2.869E-25  6.272E-16
8.166E+01  2.816E-25  6.099E-16
8.091E+01  2.763E-25  5.929E-16
8.017E+01  2.710E-25  5.764E-16
7.943E+01  2.659E-25  5.602E-16
7.870E+01  2.608E-25  5.445E-16
7.798E+01  2.558E-25  5.291E-16
7.727E+01  2.508E-25  5.141E-16
7.656E+01  2.460E-25  4.996E-16
7.586E+01  2.412E-25  4.854E-16
7.516E+01  2.366E-25  4.716E-16
7.447E+01  2.320E-25  4.582E-16
7.379E+01  2.274E-25  4.451E-16
7.311E+01  2.230E-25  4.325E-16
7.244E+01  2.186E-25  4.201E-16
7.178E+01  2.144E-25  4.082E-16
7.112E+01  2.103E-25  3.967E-16
7.047E+01  2.063E-25  3.856E-16
6.982E+01  2.024E-25  3.748E-16
6.918E+01  1.986E-25  3.645E-16
6.855E+01  1.949E-25  3.544E-16
6.792E+01  1.913E-25  3.447E-16
6.730E+01  1.879E-25  3.354E-16
6.668E+01  1.845E-25  3.264E-16
6.607E+01  1.813E-25  3.177E-16
6.546E+01  1.781E-25  3.092E-16
6.486E+01  1.751E-25  3.012E-16
6.427E+01  1.721E-25  2.934E-16
6.368E+01  1.693E-25  2.859E-16
6.310E+01  1.665E-25  2.787E-16
6.252E+01  1.639E-25  2.718E-16
6.194E+01  1.614E-25  2.652E-16
6.138E+01  1.590E-25  2.588E-16
6.081E+01  1.567E-25  2.527E-16
6.026E+01  1.544E-25  2.469E-16
5.970E+01  1.523E-25  2.412E-16
5.916E+01  1.503E-25  2.358E-16
5.861E+01  1.483E-25  2.305E-16
5.808E+01  1.464E-25  2.255E-16
5.754E+01  1.446E-25  2.208E-16
5.702E+01  1.429E-25  2.162E-16
5.649E+01  1.413E-25  2.118E-16
5.598E+01  1.398E-25  2.076E-16
5.546E+01  1.383E-25  2.035E-16
5.495E+01  1.370E-25  1.997E-16
5.445E+01  1.357E-25  1.960E-16
5.395E+01  1.345E-25  1.924E-16
5.346E+01  1.333E-25  1.890E-16
5.297E+01  1.322E-25  1.857E-16
5.248E+01  1.312E-25  1.826E-16
5.200E+01  1.302E-25  1.796E-16
5.152E+01  1.293E-25  1.767E-16
5.105E+01  1.284E-25  1.738E-16
5.058E+01  1.276E-25  1.712E-16
5.012E+01  1.268E-25  1.686E-16
4.966E+01  1.261E-25  1.661E-16
