Dust emission from Draine & Li (2007): ApJ 657, 810-837
================================================================
         6 = grain model
 4.000E-08 4.000E-01 3.750E-05 = a_01 (cm) , sigma_1 , b_C1/0.92
 2.500E-07 4.000E-01 1.250E-05 = a_02 (cm) , sigma_2 , b_C2/0.92
 8.000E-01 1.000E+04 2.000E+00 = Umin , Umax, beta (dN/dU propto U^{-beta})
 7.547E+00 = <U> 
     mmp83 = radfield
 3.403E-23 = power/H (erg s-1)
 band   nu*P_nu(band) j_nu(band)
 (um)   (erg s-1 H-1)(Jy cm2 sr-1 H-1)
1.270E+00  1.150E-25  3.873E-18 COBE-DIRBE
2.220E+00  1.467E-25  8.637E-18 COBE-DIRBE
3.530E+00  9.617E-25  9.005E-17 COBE-DIRBE
4.880E+00  4.484E-25  5.804E-17 COBE-DIRBE
1.229E+01  4.263E-24  1.390E-15 COBE-DIRBE
2.079E+01  4.692E-24  2.587E-15 COBE-DIRBE
5.599E+01  1.625E-23  2.413E-14 COBE-DIRBE
9.770E+01  1.187E-23  3.076E-14 COBE-DIRBE
1.479E+02  7.088E-24  2.781E-14 COBE-DIRBE
2.479E+02  2.032E-24  1.336E-14 COBE-DIRBE
1.200E+01  4.461E-24  1.420E-15 IRAS
2.500E+01  5.819E-24  3.859E-15 IRAS
6.000E+01  1.590E-23  2.530E-14 IRAS
1.000E+02  1.159E-23  3.075E-14 IRAS
3.550E+00  1.118E-24  1.053E-16 SST-IRAC
4.493E+00  3.135E-25  3.736E-17 SST-IRAC
5.731E+00  2.680E-24  4.074E-16 SST-IRAC
7.872E+00  6.401E-24  1.337E-15 SST-IRAC
2.368E+01  5.127E-24  3.220E-15 SST-MIPS
7.142E+01  1.355E-23  2.568E-14 SST-MIPS
1.559E+02  6.043E-24  2.499E-14 SST-MIPS
1.600E+01  3.709E-24  1.574E-15 SST-IRSPU
2.200E+01  5.009E-24  2.923E-15 SST-IRSPU











lambda    nu*dP/dnu     j_nu
 (um)   (erg s-1 H-1)(Jy cm2 sr-1 H-1)
1.000E+04  6.106E-31  1.620E-19
9.908E+03  6.329E-31  1.663E-19
9.817E+03  6.560E-31  1.708E-19
9.727E+03  6.800E-31  1.755E-19
9.638E+03  7.048E-31  1.802E-19
9.550E+03  7.306E-31  1.851E-19
9.462E+03  7.573E-31  1.901E-19
9.376E+03  7.850E-31  1.952E-19
9.290E+03  8.137E-31  2.005E-19
9.204E+03  8.435E-31  2.059E-19
9.120E+03  8.743E-31  2.115E-19
9.036E+03  9.063E-31  2.172E-19
8.954E+03  9.393E-31  2.231E-19
8.872E+03  9.734E-31  2.291E-19
8.790E+03  1.009E-30  2.352E-19
8.710E+03  1.046E-30  2.416E-19
8.630E+03  1.084E-30  2.481E-19
8.551E+03  1.123E-30  2.547E-19
8.472E+03  1.164E-30  2.616E-19
8.395E+03  1.207E-30  2.687E-19
8.318E+03  1.251E-30  2.759E-19
8.241E+03  1.296E-30  2.834E-19
8.166E+03  1.344E-30  2.911E-19
8.091E+03  1.393E-30  2.989E-19
8.017E+03  1.444E-30  3.070E-19
7.943E+03  1.497E-30  3.154E-19
7.870E+03  1.552E-30  3.239E-19
7.798E+03  1.609E-30  3.327E-19
7.727E+03  1.668E-30  3.418E-19
7.656E+03  1.729E-30  3.511E-19
7.586E+03  1.792E-30  3.606E-19
7.516E+03  1.858E-30  3.705E-19
7.447E+03  1.927E-30  3.806E-19
7.379E+03  1.997E-30  3.910E-19
7.311E+03  2.071E-30  4.016E-19
7.244E+03  2.147E-30  4.126E-19
7.178E+03  2.226E-30  4.239E-19
7.112E+03  2.309E-30  4.355E-19
7.047E+03  2.394E-30  4.475E-19
6.982E+03  2.482E-30  4.597E-19
6.918E+03  2.574E-30  4.723E-19
6.855E+03  2.669E-30  4.852E-19
6.792E+03  2.767E-30  4.986E-19
6.730E+03  2.869E-30  5.122E-19
6.668E+03  2.976E-30  5.263E-19
6.607E+03  3.086E-30  5.408E-19
6.546E+03  3.200E-30  5.557E-19
6.486E+03  3.318E-30  5.710E-19
6.427E+03  3.441E-30  5.867E-19
6.368E+03  3.569E-30  6.029E-19
6.310E+03  3.702E-30  6.195E-19
6.252E+03  3.839E-30  6.366E-19
6.194E+03  3.982E-30  6.543E-19
6.138E+03  4.130E-30  6.724E-19
6.081E+03  4.284E-30  6.910E-19
6.026E+03  4.443E-30  7.102E-19
5.970E+03  4.609E-30  7.299E-19
5.916E+03  4.780E-30  7.501E-19
5.861E+03  4.959E-30  7.710E-19
5.808E+03  5.144E-30  7.924E-19
5.754E+03  5.336E-30  8.145E-19
5.702E+03  5.536E-30  8.372E-19
5.649E+03  5.743E-30  8.605E-19
5.598E+03  5.957E-30  8.846E-19
5.546E+03  6.180E-30  9.093E-19
5.495E+03  6.412E-30  9.347E-19
5.445E+03  6.652E-30  9.608E-19
5.395E+03  6.902E-30  9.877E-19
5.346E+03  7.161E-30  1.015E-18
5.297E+03  7.430E-30  1.044E-18
5.248E+03  7.709E-30  1.073E-18
5.200E+03  7.999E-30  1.103E-18
5.152E+03  8.300E-30  1.134E-18
5.105E+03  8.612E-30  1.166E-18
5.058E+03  8.936E-30  1.199E-18
5.012E+03  9.273E-30  1.233E-18
4.966E+03  9.622E-30  1.267E-18
4.920E+03  9.985E-30  1.303E-18
4.875E+03  1.036E-29  1.340E-18
4.831E+03  1.075E-29  1.378E-18
4.786E+03  1.116E-29  1.417E-18
4.742E+03  1.158E-29  1.457E-18
4.699E+03  1.202E-29  1.498E-18
4.656E+03  1.247E-29  1.540E-18
4.613E+03  1.294E-29  1.584E-18
4.571E+03  1.344E-29  1.629E-18
4.529E+03  1.394E-29  1.675E-18
4.487E+03  1.447E-29  1.723E-18
4.446E+03  1.502E-29  1.772E-18
4.406E+03  1.559E-29  1.822E-18
4.365E+03  1.619E-29  1.874E-18
4.325E+03  1.680E-29  1.928E-18
4.285E+03  1.744E-29  1.983E-18
4.246E+03  1.811E-29  2.039E-18
4.207E+03  1.880E-29  2.098E-18
4.169E+03  1.951E-29  2.158E-18
4.130E+03  2.026E-29  2.219E-18
4.093E+03  2.103E-29  2.283E-18
4.055E+03  2.183E-29  2.348E-18
4.018E+03  2.267E-29  2.416E-18
3.981E+03  2.353E-29  2.485E-18
3.945E+03  2.443E-29  2.556E-18
3.908E+03  2.537E-29  2.630E-18
3.873E+03  2.634E-29  2.705E-18
3.837E+03  2.734E-29  2.783E-18
3.802E+03  2.839E-29  2.863E-18
3.767E+03  2.948E-29  2.946E-18
3.733E+03  3.061E-29  3.031E-18
3.698E+03  3.179E-29  3.118E-18
3.664E+03  3.301E-29  3.208E-18
3.631E+03  3.428E-29  3.301E-18
3.597E+03  3.560E-29  3.397E-18
3.565E+03  3.697E-29  3.495E-18
3.532E+03  3.839E-29  3.597E-18
3.499E+03  3.987E-29  3.701E-18
3.467E+03  4.141E-29  3.809E-18
3.436E+03  4.301E-29  3.920E-18
3.404E+03  4.467E-29  4.034E-18
3.373E+03  4.640E-29  4.151E-18
3.342E+03  4.819E-29  4.272E-18
3.311E+03  5.006E-29  4.397E-18
3.281E+03  5.200E-29  4.525E-18
3.251E+03  5.401E-29  4.658E-18
3.221E+03  5.611E-29  4.794E-18
3.192E+03  5.829E-29  4.935E-18
3.162E+03  6.055E-29  5.079E-18
3.133E+03  6.290E-29  5.228E-18
3.105E+03  6.535E-29  5.382E-18
3.076E+03  6.789E-29  5.540E-18
3.048E+03  7.054E-29  5.703E-18
3.020E+03  7.328E-29  5.871E-18
2.992E+03  7.614E-29  6.043E-18
2.965E+03  7.910E-29  6.221E-18
2.938E+03  8.218E-29  6.403E-18
2.911E+03  8.537E-29  6.592E-18
2.884E+03  8.870E-29  6.786E-18
2.858E+03  9.216E-29  6.986E-18
2.831E+03  9.575E-29  7.192E-18
2.805E+03  9.949E-29  7.404E-18
2.780E+03  1.034E-28  7.622E-18
2.754E+03  1.074E-28  7.848E-18
2.729E+03  1.116E-28  8.080E-18
2.704E+03  1.160E-28  8.319E-18
2.679E+03  1.205E-28  8.566E-18
2.655E+03  1.253E-28  8.820E-18
2.630E+03  1.302E-28  9.082E-18
2.606E+03  1.353E-28  9.351E-18
2.582E+03  1.406E-28  9.629E-18
2.559E+03  1.461E-28  9.916E-18
2.535E+03  1.518E-28  1.021E-17
2.512E+03  1.578E-28  1.052E-17
2.489E+03  1.640E-28  1.083E-17
2.466E+03  1.705E-28  1.115E-17
2.443E+03  1.772E-28  1.149E-17
2.421E+03  1.842E-28  1.183E-17
2.399E+03  1.914E-28  1.218E-17
2.377E+03  1.990E-28  1.255E-17
2.355E+03  2.069E-28  1.292E-17
2.333E+03  2.150E-28  1.331E-17
2.312E+03  2.235E-28  1.371E-17
2.291E+03  2.324E-28  1.412E-17
2.270E+03  2.415E-28  1.454E-17
2.249E+03  2.511E-28  1.498E-17
2.228E+03  2.610E-28  1.543E-17
2.208E+03  2.714E-28  1.589E-17
2.188E+03  2.821E-28  1.637E-17
2.168E+03  2.933E-28  1.687E-17
2.148E+03  3.049E-28  1.737E-17
2.128E+03  3.170E-28  1.790E-17
2.109E+03  3.296E-28  1.844E-17
2.089E+03  3.427E-28  1.899E-17
2.070E+03  3.563E-28  1.957E-17
2.051E+03  3.705E-28  2.016E-17
2.032E+03  3.852E-28  2.076E-17
2.014E+03  4.005E-28  2.139E-17
1.995E+03  4.164E-28  2.204E-17
1.977E+03  4.329E-28  2.270E-17
1.959E+03  4.502E-28  2.339E-17
1.941E+03  4.681E-28  2.410E-17
1.923E+03  4.867E-28  2.483E-17
1.905E+03  5.060E-28  2.558E-17
1.888E+03  5.262E-28  2.635E-17
1.871E+03  5.471E-28  2.715E-17
1.854E+03  5.689E-28  2.797E-17
1.837E+03  5.916E-28  2.882E-17
1.820E+03  6.152E-28  2.969E-17
1.803E+03  6.397E-28  3.059E-17
1.786E+03  6.652E-28  3.152E-17
1.770E+03  6.917E-28  3.248E-17
1.754E+03  7.193E-28  3.346E-17
1.738E+03  7.480E-28  3.448E-17
1.722E+03  7.778E-28  3.553E-17
1.706E+03  8.089E-28  3.661E-17
1.690E+03  8.412E-28  3.772E-17
1.675E+03  8.747E-28  3.886E-17
1.660E+03  9.096E-28  4.004E-17
1.644E+03  9.460E-28  4.126E-17
1.629E+03  9.837E-28  4.252E-17
1.614E+03  1.023E-27  4.381E-17
1.600E+03  1.064E-27  4.514E-17
1.585E+03  1.106E-27  4.651E-17
1.570E+03  1.151E-27  4.792E-17
1.556E+03  1.196E-27  4.938E-17
1.542E+03  1.244E-27  5.088E-17
1.528E+03  1.294E-27  5.243E-17
1.514E+03  1.346E-27  5.402E-17
1.500E+03  1.399E-27  5.566E-17
1.486E+03  1.455E-27  5.736E-17
1.472E+03  1.513E-27  5.910E-17
1.459E+03  1.574E-27  6.090E-17
1.445E+03  1.637E-27  6.275E-17
1.432E+03  1.702E-27  6.466E-17
1.419E+03  1.770E-27  6.663E-17
1.406E+03  1.841E-27  6.866E-17
1.393E+03  1.914E-27  7.074E-17
1.380E+03  1.991E-27  7.289E-17
1.368E+03  2.070E-27  7.511E-17
1.355E+03  2.153E-27  7.739E-17
1.343E+03  2.239E-27  7.975E-17
1.330E+03  2.328E-27  8.217E-17
1.318E+03  2.421E-27  8.467E-17
1.306E+03  2.518E-27  8.724E-17
1.294E+03  2.618E-27  8.989E-17
1.282E+03  2.723E-27  9.262E-17
1.271E+03  2.831E-27  9.543E-17
1.259E+03  2.944E-27  9.832E-17
1.247E+03  3.062E-27  1.013E-16
1.236E+03  3.184E-27  1.044E-16
1.225E+03  3.310E-27  1.075E-16
1.213E+03  3.442E-27  1.108E-16
1.202E+03  3.579E-27  1.141E-16
1.191E+03  3.722E-27  1.176E-16
1.180E+03  3.870E-27  1.212E-16
1.169E+03  4.023E-27  1.248E-16
1.159E+03  4.183E-27  1.286E-16
1.148E+03  4.349E-27  1.325E-16
1.138E+03  4.522E-27  1.365E-16
1.127E+03  4.702E-27  1.406E-16
1.117E+03  4.888E-27  1.448E-16
1.107E+03  5.082E-27  1.492E-16
1.096E+03  5.283E-27  1.537E-16
1.086E+03  5.493E-27  1.583E-16
1.076E+03  5.710E-27  1.630E-16
1.067E+03  5.936E-27  1.679E-16
1.057E+03  6.171E-27  1.730E-16
1.047E+03  6.415E-27  1.782E-16
1.038E+03  6.668E-27  1.835E-16
1.028E+03  6.931E-27  1.890E-16
1.019E+03  7.204E-27  1.947E-16
1.009E+03  7.488E-27  2.005E-16
1.000E+03  7.783E-27  2.065E-16
9.908E+02  8.090E-27  2.126E-16
9.817E+02  8.409E-27  2.190E-16
9.727E+02  8.740E-27  2.255E-16
9.638E+02  9.084E-27  2.322E-16
9.550E+02  9.441E-27  2.392E-16
9.462E+02  9.812E-27  2.463E-16
9.376E+02  1.020E-26  2.536E-16
9.290E+02  1.060E-26  2.611E-16
9.204E+02  1.101E-26  2.689E-16
9.120E+02  1.144E-26  2.769E-16
9.036E+02  1.189E-26  2.851E-16
8.954E+02  1.236E-26  2.935E-16
8.872E+02  1.284E-26  3.021E-16
8.790E+02  1.334E-26  3.110E-16
8.710E+02  1.386E-26  3.202E-16
8.630E+02  1.440E-26  3.296E-16
8.551E+02  1.496E-26  3.393E-16
8.472E+02  1.554E-26  3.492E-16
8.395E+02  1.614E-26  3.595E-16
8.318E+02  1.677E-26  3.700E-16
8.241E+02  1.742E-26  3.808E-16
8.166E+02  1.809E-26  3.919E-16
8.091E+02  1.879E-26  4.033E-16
8.017E+02  1.951E-26  4.150E-16
7.943E+02  2.027E-26  4.270E-16
7.870E+02  2.105E-26  4.394E-16
7.798E+02  2.186E-26  4.521E-16
7.727E+02  2.269E-26  4.652E-16
7.656E+02  2.357E-26  4.786E-16
7.586E+02  2.447E-26  4.924E-16
7.516E+02  2.541E-26  5.065E-16
7.447E+02  2.638E-26  5.211E-16
7.379E+02  2.739E-26  5.361E-16
7.311E+02  2.844E-26  5.515E-16
7.244E+02  2.953E-26  5.674E-16
7.178E+02  3.066E-26  5.837E-16
7.112E+02  3.183E-26  6.004E-16
7.047E+02  3.304E-26  6.177E-16
6.982E+02  3.430E-26  6.354E-16
6.918E+02  3.561E-26  6.536E-16
6.855E+02  3.697E-26  6.722E-16
6.792E+02  3.838E-26  6.914E-16
6.730E+02  3.983E-26  7.111E-16
6.668E+02  4.135E-26  7.313E-16
6.607E+02  4.291E-26  7.521E-16
6.546E+02  4.454E-26  7.735E-16
6.486E+02  4.624E-26  7.955E-16
6.427E+02  4.799E-26  8.182E-16
6.368E+02  4.982E-26  8.415E-16
6.310E+02  5.171E-26  8.654E-16
6.252E+02  5.367E-26  8.900E-16
6.194E+02  5.571E-26  9.153E-16
6.138E+02  5.782E-26  9.413E-16
6.081E+02  6.001E-26  9.680E-16
6.026E+02  6.228E-26  9.954E-16
5.970E+02  6.464E-26  1.024E-15
5.916E+02  6.708E-26  1.053E-15
5.861E+02  6.961E-26  1.082E-15
5.808E+02  7.224E-26  1.113E-15
5.754E+02  7.497E-26  1.144E-15
5.702E+02  7.779E-26  1.177E-15
5.649E+02  8.072E-26  1.210E-15
5.598E+02  8.376E-26  1.244E-15
5.546E+02  8.692E-26  1.279E-15
5.495E+02  9.018E-26  1.315E-15
5.445E+02  9.357E-26  1.352E-15
5.395E+02  9.709E-26  1.389E-15
5.346E+02  1.007E-25  1.428E-15
5.297E+02  1.045E-25  1.468E-15
5.248E+02  1.084E-25  1.509E-15
5.200E+02  1.125E-25  1.551E-15
5.152E+02  1.167E-25  1.595E-15
5.105E+02  1.210E-25  1.639E-15
5.058E+02  1.256E-25  1.685E-15
5.012E+02  1.302E-25  1.732E-15
4.966E+02  1.351E-25  1.780E-15
4.920E+02  1.401E-25  1.829E-15
4.875E+02  1.453E-25  1.879E-15
4.831E+02  1.507E-25  1.931E-15
4.786E+02  1.563E-25  1.985E-15
4.742E+02  1.621E-25  2.039E-15
4.699E+02  1.681E-25  2.095E-15
4.656E+02  1.743E-25  2.153E-15
4.613E+02  1.808E-25  2.212E-15
4.571E+02  1.874E-25  2.272E-15
4.529E+02  1.943E-25  2.334E-15
4.487E+02  2.015E-25  2.398E-15
4.446E+02  2.089E-25  2.463E-15
4.406E+02  2.165E-25  2.530E-15
4.365E+02  2.244E-25  2.599E-15
4.325E+02  2.326E-25  2.669E-15
4.285E+02  2.411E-25  2.741E-15
4.246E+02  2.499E-25  2.815E-15
4.207E+02  2.590E-25  2.891E-15
4.169E+02  2.685E-25  2.969E-15
4.130E+02  2.782E-25  3.048E-15
4.093E+02  2.883E-25  3.130E-15
4.055E+02  2.987E-25  3.213E-15
4.018E+02  3.095E-25  3.299E-15
3.981E+02  3.207E-25  3.387E-15
3.945E+02  3.323E-25  3.477E-15
3.908E+02  3.442E-25  3.569E-15
3.873E+02  3.566E-25  3.663E-15
3.837E+02  3.694E-25  3.760E-15
3.802E+02  3.826E-25  3.859E-15
3.767E+02  3.963E-25  3.960E-15
3.733E+02  4.104E-25  4.064E-15
3.698E+02  4.250E-25  4.170E-15
3.664E+02  4.402E-25  4.278E-15
3.631E+02  4.558E-25  4.389E-15
3.597E+02  4.719E-25  4.503E-15
3.565E+02  4.886E-25  4.619E-15
3.532E+02  5.058E-25  4.738E-15
3.499E+02  5.236E-25  4.860E-15
3.467E+02  5.420E-25  4.985E-15
3.436E+02  5.609E-25  5.112E-15
3.404E+02  5.805E-25  5.242E-15
3.373E+02  6.008E-25  5.375E-15
3.342E+02  6.217E-25  5.511E-15
3.311E+02  6.432E-25  5.650E-15
3.281E+02  6.655E-25  5.792E-15
3.251E+02  6.884E-25  5.937E-15
3.221E+02  7.121E-25  6.085E-15
3.192E+02  7.366E-25  6.236E-15
3.162E+02  7.618E-25  6.390E-15
3.133E+02  7.878E-25  6.548E-15
3.105E+02  8.146E-25  6.709E-15
3.076E+02  8.423E-25  6.873E-15
3.048E+02  8.708E-25  7.041E-15
3.020E+02  9.002E-25  7.212E-15
2.992E+02  9.305E-25  7.386E-15
2.965E+02  9.617E-25  7.564E-15
2.938E+02  9.939E-25  7.745E-15
2.911E+02  1.027E-24  7.930E-15
2.884E+02  1.061E-24  8.118E-15
2.858E+02  1.096E-24  8.310E-15
2.831E+02  1.133E-24  8.506E-15
2.805E+02  1.170E-24  8.705E-15
2.780E+02  1.208E-24  8.908E-15
2.754E+02  1.248E-24  9.115E-15
2.729E+02  1.288E-24  9.327E-15
2.704E+02  1.330E-24  9.542E-15
2.679E+02  1.374E-24  9.762E-15
2.655E+02  1.418E-24  9.985E-15
2.630E+02  1.464E-24  1.021E-14
2.606E+02  1.511E-24  1.044E-14
2.582E+02  1.559E-24  1.068E-14
2.559E+02  1.609E-24  1.092E-14
2.535E+02  1.659E-24  1.116E-14
2.512E+02  1.711E-24  1.140E-14
2.489E+02  1.763E-24  1.164E-14
2.466E+02  1.816E-24  1.188E-14
2.443E+02  1.870E-24  1.212E-14
2.421E+02  1.925E-24  1.236E-14
2.399E+02  1.980E-24  1.260E-14
2.377E+02  2.036E-24  1.284E-14
2.355E+02  2.093E-24  1.308E-14
2.333E+02  2.152E-24  1.332E-14
2.312E+02  2.212E-24  1.356E-14
2.291E+02  2.273E-24  1.381E-14
2.270E+02  2.335E-24  1.406E-14
2.249E+02  2.399E-24  1.431E-14
2.228E+02  2.464E-24  1.456E-14
2.208E+02  2.530E-24  1.482E-14
2.188E+02  2.598E-24  1.508E-14
2.168E+02  2.667E-24  1.534E-14
2.148E+02  2.738E-24  1.560E-14
2.128E+02  2.810E-24  1.586E-14
2.109E+02  2.883E-24  1.613E-14
2.089E+02  2.958E-24  1.640E-14
2.070E+02  3.035E-24  1.666E-14
2.051E+02  3.112E-24  1.693E-14
2.032E+02  3.191E-24  1.720E-14
2.014E+02  3.272E-24  1.748E-14
1.995E+02  3.354E-24  1.775E-14
1.977E+02  3.437E-24  1.803E-14
1.959E+02  3.522E-24  1.830E-14
1.941E+02  3.609E-24  1.858E-14
1.923E+02  3.697E-24  1.886E-14
1.905E+02  3.787E-24  1.914E-14
1.888E+02  3.878E-24  1.942E-14
1.871E+02  3.971E-24  1.970E-14
1.854E+02  4.065E-24  1.999E-14
1.837E+02  4.161E-24  2.027E-14
1.820E+02  4.259E-24  2.056E-14
1.803E+02  4.357E-24  2.084E-14
1.786E+02  4.459E-24  2.113E-14
1.770E+02  4.561E-24  2.142E-14
1.754E+02  4.666E-24  2.171E-14
1.738E+02  4.772E-24  2.200E-14
1.722E+02  4.881E-24  2.229E-14
1.706E+02  4.991E-24  2.259E-14
1.690E+02  5.103E-24  2.288E-14
1.675E+02  5.217E-24  2.318E-14
1.660E+02  5.333E-24  2.348E-14
1.644E+02  5.452E-24  2.378E-14
1.629E+02  5.573E-24  2.409E-14
1.614E+02  5.697E-24  2.439E-14
1.600E+02  5.822E-24  2.470E-14
1.585E+02  5.951E-24  2.502E-14
1.570E+02  6.083E-24  2.534E-14
1.556E+02  6.218E-24  2.566E-14
1.542E+02  6.356E-24  2.599E-14
1.528E+02  6.497E-24  2.633E-14
1.514E+02  6.642E-24  2.667E-14
1.500E+02  6.789E-24  2.701E-14
1.486E+02  6.940E-24  2.735E-14
1.472E+02  7.093E-24  2.770E-14
1.459E+02  7.246E-24  2.804E-14
1.445E+02  7.400E-24  2.837E-14
1.432E+02  7.551E-24  2.869E-14
1.419E+02  7.697E-24  2.897E-14
1.406E+02  7.835E-24  2.922E-14
1.393E+02  7.962E-24  2.942E-14
1.380E+02  8.078E-24  2.958E-14
1.368E+02  8.183E-24  2.969E-14
1.355E+02  8.277E-24  2.975E-14
1.343E+02  8.365E-24  2.979E-14
1.330E+02  8.448E-24  2.982E-14
1.318E+02  8.530E-24  2.983E-14
1.306E+02  8.612E-24  2.984E-14
1.294E+02  8.695E-24  2.985E-14
1.282E+02  8.779E-24  2.986E-14
1.271E+02  8.865E-24  2.988E-14
1.259E+02  8.954E-24  2.990E-14
1.247E+02  9.045E-24  2.993E-14
1.236E+02  9.139E-24  2.996E-14
1.225E+02  9.235E-24  3.000E-14
1.213E+02  9.333E-24  3.004E-14
1.202E+02  9.433E-24  3.008E-14
1.191E+02  9.535E-24  3.013E-14
1.180E+02  9.637E-24  3.017E-14
1.169E+02  9.741E-24  3.022E-14
1.159E+02  9.844E-24  3.026E-14
1.148E+02  9.949E-24  3.030E-14
1.138E+02  1.006E-23  3.035E-14
1.127E+02  1.016E-23  3.039E-14
1.117E+02  1.027E-23  3.043E-14
1.107E+02  1.038E-23  3.047E-14
1.096E+02  1.049E-23  3.051E-14
1.086E+02  1.060E-23  3.055E-14
1.076E+02  1.071E-23  3.058E-14
1.067E+02  1.082E-23  3.062E-14
1.057E+02  1.093E-23  3.065E-14
1.047E+02  1.104E-23  3.067E-14
1.038E+02  1.115E-23  3.070E-14
1.028E+02  1.126E-23  3.071E-14
1.019E+02  1.137E-23  3.073E-14
1.009E+02  1.148E-23  3.073E-14
1.000E+02  1.159E-23  3.074E-14
9.908E+01  1.169E-23  3.074E-14
9.817E+01  1.180E-23  3.073E-14
9.727E+01  1.191E-23  3.072E-14
9.638E+01  1.201E-23  3.071E-14
9.550E+01  1.212E-23  3.069E-14
9.462E+01  1.222E-23  3.067E-14
9.376E+01  1.232E-23  3.064E-14
9.290E+01  1.242E-23  3.061E-14
9.204E+01  1.252E-23  3.057E-14
9.120E+01  1.262E-23  3.053E-14
9.036E+01  1.272E-23  3.048E-14
8.954E+01  1.281E-23  3.043E-14
8.872E+01  1.291E-23  3.037E-14
8.790E+01  1.300E-23  3.032E-14
8.710E+01  1.310E-23  3.025E-14
8.630E+01  1.319E-23  3.019E-14
8.551E+01  1.328E-23  3.012E-14
8.472E+01  1.337E-23  3.004E-14
8.395E+01  1.346E-23  2.996E-14
8.318E+01  1.354E-23  2.988E-14
8.241E+01  1.363E-23  2.980E-14
8.166E+01  1.372E-23  2.971E-14
8.091E+01  1.380E-23  2.962E-14
8.017E+01  1.389E-23  2.953E-14
7.943E+01  1.397E-23  2.943E-14
7.870E+01  1.405E-23  2.933E-14
7.798E+01  1.413E-23  2.923E-14
7.727E+01  1.421E-23  2.912E-14
7.656E+01  1.428E-23  2.901E-14
7.586E+01  1.436E-23  2.890E-14
7.516E+01  1.443E-23  2.878E-14
7.447E+01  1.451E-23  2.866E-14
7.379E+01  1.458E-23  2.853E-14
7.311E+01  1.465E-23  2.840E-14
7.244E+01  1.471E-23  2.827E-14
7.178E+01  1.478E-23  2.814E-14
7.112E+01  1.484E-23  2.800E-14
7.047E+01  1.491E-23  2.787E-14
6.982E+01  1.497E-23  2.773E-14
6.918E+01  1.504E-23  2.760E-14
6.855E+01  1.510E-23  2.746E-14
6.792E+01  1.516E-23  2.731E-14
6.730E+01  1.522E-23  2.717E-14
6.668E+01  1.528E-23  2.702E-14
6.607E+01  1.534E-23  2.688E-14
6.546E+01  1.539E-23  2.673E-14
6.486E+01  1.545E-23  2.658E-14
6.427E+01  1.550E-23  2.643E-14
6.368E+01  1.555E-23  2.627E-14
6.310E+01  1.561E-23  2.612E-14
6.252E+01  1.566E-23  2.597E-14
6.194E+01  1.571E-23  2.582E-14
6.138E+01  1.576E-23  2.566E-14
6.081E+01  1.581E-23  2.551E-14
6.026E+01  1.586E-23  2.536E-14
5.970E+01  1.591E-23  2.520E-14
5.916E+01  1.596E-23  2.505E-14
5.861E+01  1.601E-23  2.489E-14
5.808E+01  1.605E-23  2.473E-14
5.754E+01  1.610E-23  2.458E-14
5.702E+01  1.615E-23  2.442E-14
5.649E+01  1.619E-23  2.427E-14
5.598E+01  1.624E-23  2.411E-14
5.546E+01  1.628E-23  2.396E-14
5.495E+01  1.633E-23  2.381E-14
5.445E+01  1.638E-23  2.365E-14
5.395E+01  1.642E-23  2.350E-14
5.346E+01  1.647E-23  2.335E-14
5.297E+01  1.651E-23  2.320E-14
5.248E+01  1.656E-23  2.305E-14
5.200E+01  1.661E-23  2.291E-14
5.152E+01  1.665E-23  2.276E-14
5.105E+01  1.670E-23  2.261E-14
5.058E+01  1.674E-23  2.247E-14
5.012E+01  1.679E-23  2.232E-14
4.966E+01  1.683E-23  2.217E-14
