Dust emission from Draine & Li (2007): ApJ 657, 810-837
==========================================================
         5 = grain model
 4.000E-08 4.000E-01 3.000E-05 = a_01 (cm) , sigma_1 , b_C1/0.92
 2.000E-07 5.500E-01 1.000E-05 = a_02 (cm) , sigma_2 , b_C2/0.92
 8.000E-01 8.000E-01 1.000E+00 = Umin , Umax, beta (dN/dU propto U^{-beta})
 8.000E-01 = <U> 
     mmp83 = radfield
 3.589E-24 = power/H (erg s-1)
 band   nu*P_nu(band) j_nu(band)
 (um)   (erg s-1 H-1)(Jy cm2 sr-1 H-1)
1.270E+00  1.001E-26  3.372E-19 COBE-DIRBE
2.220E+00  1.273E-26  7.494E-19 COBE-DIRBE
3.530E+00  8.257E-26  7.731E-18 COBE-DIRBE
4.880E+00  3.705E-26  4.796E-18 COBE-DIRBE
1.229E+01  3.269E-25  1.066E-16 COBE-DIRBE
2.079E+01  2.075E-25  1.144E-16 COBE-DIRBE
5.599E+01  6.174E-25  9.169E-16 COBE-DIRBE
9.770E+01  1.957E-24  5.073E-15 COBE-DIRBE
1.479E+02  2.257E-24  8.853E-15 COBE-DIRBE
2.479E+02  1.007E-24  6.619E-15 COBE-DIRBE
1.200E+01  3.587E-25  1.142E-16 IRAS
2.500E+01  1.872E-25  1.241E-16 IRAS
6.000E+01  7.368E-25  1.173E-15 IRAS
1.000E+02  2.018E-24  5.353E-15 IRAS
3.550E+00  9.600E-26  9.040E-18 SST-IRAC
4.493E+00  2.696E-26  3.213E-18 SST-IRAC
5.731E+00  2.147E-25  3.264E-17 SST-IRAC
7.872E+00  5.227E-25  1.091E-16 SST-IRAC
2.368E+01  1.661E-25  1.043E-16 SST-MIPS
7.142E+01  1.033E-24  1.958E-15 SST-MIPS
1.559E+02  2.122E-24  8.775E-15 SST-MIPS
1.600E+01  2.506E-25  1.063E-16 SST-IRSPU
2.200E+01  1.803E-25  1.052E-16 SST-IRSPU
7.500E+01  8.677E-25  1.726E-15 Herschel-PACS
1.100E+02  1.491E-24  4.349E-15 Herschel-PACS
1.700E+02  1.623E-24  7.320E-15 Herschel-PACS
2.500E+02  8.838E-25  5.861E-15 Herschel-SPIRE
3.600E+02  2.993E-25  2.858E-15 Herschel-SPIRE
5.200E+02  8.195E-26  1.130E-15 Herschel-SPIRE
2.400E+00  1.426E-26  9.077E-19 Akari IRC NIR N2
3.200E+00  6.351E-26  5.391E-18 Akari IRC NIR N3
4.100E+00  2.925E-26  3.181E-18 Akari IRC NIR N4
7.000E+00  5.927E-25  1.101E-16 Akari IRC MIR-S S7
9.000E+00  4.197E-25  1.002E-16 Akari IRC MIR-S S9W
1.100E+01  3.279E-25  9.566E-17 Akari IRC MIR-S S11
1.500E+01  2.603E-25  1.036E-16 Akari IRC MIR-L L15
1.800E+01  2.136E-25  1.020E-16 Akari IRC MIR-L L18W
2.400E+01  1.743E-25  1.109E-16 Akari IRC MIR-L L24
6.500E+01  9.297E-25  1.603E-15 Akari FIS N60
8.000E+01  1.638E-24  3.476E-15 Akari FIS WIDE-S
1.400E+02  2.276E-24  8.452E-15 Akari FIS WIDE-L
1.600E+02  2.119E-24  8.993E-15 Akari FIS N160
 
 
 
 


lambda    nu*dP/dnu     j_nu
 (um)   (erg s-1 H-1)(Jy cm2 sr-1 H-1)
1.000E+04  5.041E-31  1.337E-19
9.908E+03  5.225E-31  1.373E-19
9.817E+03  5.415E-31  1.410E-19
9.727E+03  5.613E-31  1.448E-19
9.638E+03  5.818E-31  1.487E-19
9.550E+03  6.030E-31  1.528E-19
9.462E+03  6.251E-31  1.569E-19
9.376E+03  6.479E-31  1.611E-19
9.290E+03  6.715E-31  1.655E-19
9.204E+03  6.961E-31  1.699E-19
9.120E+03  7.215E-31  1.745E-19
9.036E+03  7.478E-31  1.793E-19
8.954E+03  7.750E-31  1.841E-19
8.872E+03  8.032E-31  1.890E-19
8.790E+03  8.324E-31  1.941E-19
8.710E+03  8.626E-31  1.993E-19
8.630E+03  8.940E-31  2.046E-19
8.551E+03  9.265E-31  2.101E-19
8.472E+03  9.603E-31  2.158E-19
8.395E+03  9.953E-31  2.216E-19
8.318E+03  1.032E-30  2.276E-19
8.241E+03  1.069E-30  2.337E-19
8.166E+03  1.108E-30  2.400E-19
8.091E+03  1.149E-30  2.465E-19
8.017E+03  1.191E-30  2.532E-19
7.943E+03  1.234E-30  2.601E-19
7.870E+03  1.279E-30  2.671E-19
7.798E+03  1.326E-30  2.743E-19
7.727E+03  1.375E-30  2.818E-19
7.656E+03  1.425E-30  2.894E-19
7.586E+03  1.477E-30  2.973E-19
7.516E+03  1.532E-30  3.054E-19
7.447E+03  1.588E-30  3.137E-19
7.379E+03  1.646E-30  3.222E-19
7.311E+03  1.707E-30  3.310E-19
7.244E+03  1.770E-30  3.400E-19
7.178E+03  1.835E-30  3.493E-19
7.112E+03  1.902E-30  3.589E-19
7.047E+03  1.972E-30  3.687E-19
6.982E+03  2.045E-30  3.787E-19
6.918E+03  2.120E-30  3.891E-19
6.855E+03  2.198E-30  3.997E-19
6.792E+03  2.279E-30  4.106E-19
6.730E+03  2.363E-30  4.219E-19
6.668E+03  2.451E-30  4.334E-19
6.607E+03  2.541E-30  4.453E-19
6.546E+03  2.635E-30  4.575E-19
6.486E+03  2.732E-30  4.701E-19
6.427E+03  2.833E-30  4.830E-19
6.368E+03  2.938E-30  4.963E-19
6.310E+03  3.047E-30  5.100E-19
6.252E+03  3.160E-30  5.240E-19
6.194E+03  3.277E-30  5.385E-19
6.138E+03  3.399E-30  5.533E-19
6.081E+03  3.525E-30  5.686E-19
6.026E+03  3.656E-30  5.843E-19
5.970E+03  3.792E-30  6.005E-19
5.916E+03  3.933E-30  6.171E-19
5.861E+03  4.079E-30  6.342E-19
5.808E+03  4.231E-30  6.518E-19
5.754E+03  4.388E-30  6.699E-19
5.702E+03  4.552E-30  6.884E-19
5.649E+03  4.722E-30  7.076E-19
5.598E+03  4.898E-30  7.272E-19
5.546E+03  5.081E-30  7.475E-19
5.495E+03  5.271E-30  7.683E-19
5.445E+03  5.468E-30  7.897E-19
5.395E+03  5.672E-30  8.117E-19
5.346E+03  5.884E-30  8.344E-19
5.297E+03  6.105E-30  8.577E-19
5.248E+03  6.333E-30  8.816E-19
5.200E+03  6.570E-30  9.063E-19
5.152E+03  6.817E-30  9.316E-19
5.105E+03  7.072E-30  9.577E-19
5.058E+03  7.338E-30  9.846E-19
5.012E+03  7.613E-30  1.012E-18
4.966E+03  7.899E-30  1.041E-18
4.920E+03  8.196E-30  1.070E-18
4.875E+03  8.504E-30  1.100E-18
4.831E+03  8.824E-30  1.131E-18
4.786E+03  9.156E-30  1.162E-18
4.742E+03  9.500E-30  1.195E-18
4.699E+03  9.858E-30  1.229E-18
4.656E+03  1.023E-29  1.263E-18
4.613E+03  1.062E-29  1.299E-18
4.571E+03  1.102E-29  1.336E-18
4.529E+03  1.143E-29  1.373E-18
4.487E+03  1.186E-29  1.412E-18
4.446E+03  1.231E-29  1.452E-18
4.406E+03  1.278E-29  1.493E-18
4.365E+03  1.326E-29  1.536E-18
4.325E+03  1.377E-29  1.579E-18
4.285E+03  1.429E-29  1.624E-18
4.246E+03  1.483E-29  1.670E-18
4.207E+03  1.539E-29  1.718E-18
4.169E+03  1.598E-29  1.767E-18
4.130E+03  1.658E-29  1.817E-18
4.093E+03  1.721E-29  1.869E-18
4.055E+03  1.787E-29  1.922E-18
4.018E+03  1.855E-29  1.977E-18
3.981E+03  1.925E-29  2.033E-18
3.945E+03  1.998E-29  2.091E-18
3.908E+03  2.074E-29  2.151E-18
3.873E+03  2.153E-29  2.212E-18
3.837E+03  2.235E-29  2.275E-18
3.802E+03  2.321E-29  2.340E-18
3.767E+03  2.409E-29  2.407E-18
3.733E+03  2.501E-29  2.476E-18
3.698E+03  2.597E-29  2.547E-18
3.664E+03  2.696E-29  2.620E-18
3.631E+03  2.799E-29  2.696E-18
3.597E+03  2.906E-29  2.773E-18
3.565E+03  3.017E-29  2.853E-18
3.532E+03  3.133E-29  2.935E-18
3.499E+03  3.253E-29  3.020E-18
3.467E+03  3.378E-29  3.107E-18
3.436E+03  3.508E-29  3.197E-18
3.404E+03  3.643E-29  3.289E-18
3.373E+03  3.783E-29  3.384E-18
3.342E+03  3.928E-29  3.482E-18
3.311E+03  4.079E-29  3.583E-18
3.281E+03  4.236E-29  3.687E-18
3.251E+03  4.400E-29  3.794E-18
3.221E+03  4.569E-29  3.904E-18
3.192E+03  4.746E-29  4.017E-18
3.162E+03  4.929E-29  4.134E-18
3.133E+03  5.119E-29  4.255E-18
3.105E+03  5.317E-29  4.378E-18
3.076E+03  5.522E-29  4.506E-18
3.048E+03  5.736E-29  4.637E-18
3.020E+03  5.958E-29  4.773E-18
2.992E+03  6.188E-29  4.912E-18
2.965E+03  6.427E-29  5.055E-18
2.938E+03  6.676E-29  5.202E-18
2.911E+03  6.934E-29  5.354E-18
2.884E+03  7.202E-29  5.510E-18
2.858E+03  7.481E-29  5.671E-18
2.831E+03  7.771E-29  5.836E-18
2.805E+03  8.072E-29  6.007E-18
2.780E+03  8.385E-29  6.183E-18
2.754E+03  8.710E-29  6.364E-18
2.729E+03  9.048E-29  6.550E-18
2.704E+03  9.400E-29  6.742E-18
2.679E+03  9.765E-29  6.940E-18
2.655E+03  1.015E-28  7.144E-18
2.630E+03  1.054E-28  7.354E-18
2.606E+03  1.095E-28  7.570E-18
2.582E+03  1.138E-28  7.793E-18
2.559E+03  1.182E-28  8.022E-18
2.535E+03  1.228E-28  8.258E-18
2.512E+03  1.276E-28  8.502E-18
2.489E+03  1.326E-28  8.753E-18
2.466E+03  1.378E-28  9.011E-18
2.443E+03  1.431E-28  9.277E-18
2.421E+03  1.487E-28  9.551E-18
2.399E+03  1.545E-28  9.834E-18
2.377E+03  1.606E-28  1.012E-17
2.355E+03  1.669E-28  1.042E-17
2.333E+03  1.734E-28  1.073E-17
2.312E+03  1.802E-28  1.105E-17
2.291E+03  1.873E-28  1.138E-17
2.270E+03  1.946E-28  1.172E-17
2.249E+03  2.022E-28  1.206E-17
2.228E+03  2.102E-28  1.242E-17
2.208E+03  2.184E-28  1.279E-17
2.188E+03  2.270E-28  1.317E-17
2.168E+03  2.359E-28  1.356E-17
2.148E+03  2.451E-28  1.397E-17
2.128E+03  2.548E-28  1.438E-17
2.109E+03  2.648E-28  1.481E-17
2.089E+03  2.752E-28  1.525E-17
2.070E+03  2.860E-28  1.570E-17
2.051E+03  2.972E-28  1.617E-17
2.032E+03  3.089E-28  1.665E-17
2.014E+03  3.211E-28  1.715E-17
1.995E+03  3.337E-28  1.766E-17
1.977E+03  3.468E-28  1.819E-17
1.959E+03  3.605E-28  1.873E-17
1.941E+03  3.746E-28  1.929E-17
1.923E+03  3.894E-28  1.986E-17
1.905E+03  4.047E-28  2.046E-17
1.888E+03  4.206E-28  2.107E-17
1.871E+03  4.372E-28  2.169E-17
1.854E+03  4.544E-28  2.234E-17
1.837E+03  4.723E-28  2.301E-17
1.820E+03  4.909E-28  2.370E-17
1.803E+03  5.103E-28  2.440E-17
1.786E+03  5.304E-28  2.513E-17
1.770E+03  5.513E-28  2.588E-17
1.754E+03  5.730E-28  2.666E-17
1.738E+03  5.956E-28  2.745E-17
1.722E+03  6.190E-28  2.827E-17
1.706E+03  6.434E-28  2.912E-17
1.690E+03  6.688E-28  2.999E-17
1.675E+03  6.952E-28  3.089E-17
1.660E+03  7.226E-28  3.181E-17
1.644E+03  7.510E-28  3.276E-17
1.629E+03  7.806E-28  3.374E-17
1.614E+03  8.114E-28  3.475E-17
1.600E+03  8.434E-28  3.578E-17
1.585E+03  8.766E-28  3.685E-17
1.570E+03  9.111E-28  3.795E-17
1.556E+03  9.470E-28  3.909E-17
1.542E+03  9.843E-28  4.025E-17
1.528E+03  1.023E-27  4.146E-17
1.514E+03  1.063E-27  4.269E-17
1.500E+03  1.105E-27  4.397E-17
1.486E+03  1.149E-27  4.528E-17
1.472E+03  1.194E-27  4.663E-17
1.459E+03  1.241E-27  4.802E-17
1.445E+03  1.290E-27  4.945E-17
1.432E+03  1.341E-27  5.093E-17
1.419E+03  1.393E-27  5.245E-17
1.406E+03  1.448E-27  5.401E-17
1.393E+03  1.505E-27  5.562E-17
1.380E+03  1.564E-27  5.728E-17
1.368E+03  1.626E-27  5.899E-17
1.355E+03  1.690E-27  6.074E-17
1.343E+03  1.756E-27  6.255E-17
1.330E+03  1.825E-27  6.441E-17
1.318E+03  1.897E-27  6.633E-17
1.306E+03  1.971E-27  6.830E-17
1.294E+03  2.049E-27  7.033E-17
1.282E+03  2.129E-27  7.242E-17
1.271E+03  2.212E-27  7.457E-17
1.259E+03  2.299E-27  7.678E-17
1.247E+03  2.389E-27  7.905E-17
1.236E+03  2.483E-27  8.139E-17
1.225E+03  2.580E-27  8.380E-17
1.213E+03  2.681E-27  8.628E-17
1.202E+03  2.785E-27  8.883E-17
1.191E+03  2.894E-27  9.146E-17
1.180E+03  3.007E-27  9.415E-17
1.169E+03  3.125E-27  9.693E-17
1.159E+03  3.246E-27  9.979E-17
1.148E+03  3.373E-27  1.027E-16
1.138E+03  3.504E-27  1.057E-16
1.127E+03  3.641E-27  1.089E-16
1.117E+03  3.782E-27  1.121E-16
1.107E+03  3.929E-27  1.153E-16
1.096E+03  4.082E-27  1.187E-16
1.086E+03  4.240E-27  1.222E-16
1.076E+03  4.405E-27  1.258E-16
1.067E+03  4.575E-27  1.294E-16
1.057E+03  4.753E-27  1.332E-16
1.047E+03  4.936E-27  1.371E-16
1.038E+03  5.127E-27  1.411E-16
1.028E+03  5.325E-27  1.452E-16
1.019E+03  5.531E-27  1.494E-16
1.009E+03  5.744E-27  1.538E-16
1.000E+03  5.965E-27  1.582E-16
9.908E+02  6.195E-27  1.628E-16
9.817E+02  6.433E-27  1.675E-16
9.727E+02  6.681E-27  1.724E-16
9.638E+02  6.937E-27  1.774E-16
9.550E+02  7.204E-27  1.825E-16
9.462E+02  7.480E-27  1.877E-16
9.376E+02  7.767E-27  1.932E-16
9.290E+02  8.064E-27  1.987E-16
9.204E+02  8.372E-27  2.044E-16
9.120E+02  8.692E-27  2.103E-16
9.036E+02  9.023E-27  2.163E-16
8.954E+02  9.367E-27  2.225E-16
8.872E+02  9.723E-27  2.288E-16
8.790E+02  1.009E-26  2.353E-16
8.710E+02  1.048E-26  2.420E-16
8.630E+02  1.087E-26  2.489E-16
8.551E+02  1.128E-26  2.559E-16
8.472E+02  1.171E-26  2.631E-16
8.395E+02  1.215E-26  2.706E-16
8.318E+02  1.261E-26  2.782E-16
8.241E+02  1.308E-26  2.860E-16
8.166E+02  1.357E-26  2.940E-16
8.091E+02  1.408E-26  3.022E-16
8.017E+02  1.461E-26  3.107E-16
7.943E+02  1.516E-26  3.193E-16
7.870E+02  1.572E-26  3.282E-16
7.798E+02  1.631E-26  3.373E-16
7.727E+02  1.691E-26  3.467E-16
7.656E+02  1.754E-26  3.563E-16
7.586E+02  1.819E-26  3.661E-16
7.516E+02  1.887E-26  3.762E-16
7.447E+02  1.957E-26  3.865E-16
7.379E+02  2.029E-26  3.972E-16
7.311E+02  2.104E-26  4.081E-16
7.244E+02  2.182E-26  4.193E-16
7.178E+02  2.263E-26  4.308E-16
7.112E+02  2.346E-26  4.426E-16
7.047E+02  2.433E-26  4.547E-16
6.982E+02  2.522E-26  4.671E-16
6.918E+02  2.615E-26  4.799E-16
6.855E+02  2.711E-26  4.929E-16
6.792E+02  2.810E-26  5.063E-16
6.730E+02  2.913E-26  5.200E-16
6.668E+02  3.019E-26  5.340E-16
6.607E+02  3.129E-26  5.484E-16
6.546E+02  3.244E-26  5.632E-16
6.486E+02  3.362E-26  5.785E-16
6.427E+02  3.485E-26  5.941E-16
6.368E+02  3.612E-26  6.101E-16
6.310E+02  3.743E-26  6.265E-16
6.252E+02  3.879E-26  6.433E-16
6.194E+02  4.020E-26  6.606E-16
6.138E+02  4.166E-26  6.783E-16
6.081E+02  4.317E-26  6.964E-16
6.026E+02  4.473E-26  7.150E-16
5.970E+02  4.635E-26  7.341E-16
5.916E+02  4.803E-26  7.536E-16
5.861E+02  4.976E-26  7.736E-16
5.808E+02  5.155E-26  7.941E-16
5.754E+02  5.340E-26  8.151E-16
5.702E+02  5.532E-26  8.367E-16
5.649E+02  5.730E-26  8.587E-16
5.598E+02  5.936E-26  8.813E-16
5.546E+02  6.148E-26  9.045E-16
5.495E+02  6.368E-26  9.282E-16
5.445E+02  6.595E-26  9.525E-16
5.395E+02  6.830E-26  9.774E-16
5.346E+02  7.072E-26  1.003E-15
5.297E+02  7.324E-26  1.029E-15
5.248E+02  7.583E-26  1.056E-15
5.200E+02  7.852E-26  1.083E-15
5.152E+02  8.129E-26  1.111E-15
5.105E+02  8.416E-26  1.140E-15
5.058E+02  8.712E-26  1.169E-15
5.012E+02  9.018E-26  1.199E-15
4.966E+02  9.335E-26  1.230E-15
4.920E+02  9.661E-26  1.261E-15
4.875E+02  9.999E-26  1.293E-15
4.831E+02  1.035E-25  1.326E-15
4.786E+02  1.071E-25  1.359E-15
4.742E+02  1.108E-25  1.394E-15
4.699E+02  1.146E-25  1.429E-15
4.656E+02  1.186E-25  1.465E-15
4.613E+02  1.227E-25  1.501E-15
4.571E+02  1.269E-25  1.539E-15
4.529E+02  1.313E-25  1.577E-15
4.487E+02  1.358E-25  1.616E-15
4.446E+02  1.404E-25  1.656E-15
4.406E+02  1.452E-25  1.697E-15
4.365E+02  1.501E-25  1.738E-15
4.325E+02  1.552E-25  1.781E-15
4.285E+02  1.605E-25  1.824E-15
4.246E+02  1.659E-25  1.869E-15
4.207E+02  1.715E-25  1.914E-15
4.169E+02  1.773E-25  1.960E-15
4.130E+02  1.832E-25  2.007E-15
4.093E+02  1.893E-25  2.055E-15
4.055E+02  1.956E-25  2.104E-15
4.018E+02  2.021E-25  2.154E-15
3.981E+02  2.088E-25  2.205E-15
3.945E+02  2.157E-25  2.257E-15
3.908E+02  2.228E-25  2.310E-15
3.873E+02  2.301E-25  2.364E-15
3.837E+02  2.377E-25  2.419E-15
3.802E+02  2.454E-25  2.475E-15
3.767E+02  2.534E-25  2.532E-15
3.733E+02  2.616E-25  2.590E-15
3.698E+02  2.701E-25  2.650E-15
3.664E+02  2.788E-25  2.710E-15
3.631E+02  2.877E-25  2.771E-15
3.597E+02  2.969E-25  2.833E-15
3.565E+02  3.064E-25  2.897E-15
3.532E+02  3.161E-25  2.961E-15
3.499E+02  3.261E-25  3.027E-15
3.467E+02  3.364E-25  3.094E-15
3.436E+02  3.469E-25  3.161E-15
3.404E+02  3.577E-25  3.230E-15
3.373E+02  3.689E-25  3.300E-15
3.342E+02  3.803E-25  3.371E-15
3.311E+02  3.920E-25  3.443E-15
3.281E+02  4.040E-25  3.516E-15
3.251E+02  4.164E-25  3.590E-15
3.221E+02  4.290E-25  3.666E-15
3.192E+02  4.420E-25  3.742E-15
3.162E+02  4.553E-25  3.819E-15
3.133E+02  4.690E-25  3.898E-15
3.105E+02  4.829E-25  3.977E-15
3.076E+02  4.973E-25  4.058E-15
3.048E+02  5.120E-25  4.139E-15
3.020E+02  5.270E-25  4.221E-15
2.992E+02  5.424E-25  4.305E-15
2.965E+02  5.581E-25  4.389E-15
2.938E+02  5.742E-25  4.474E-15
2.911E+02  5.907E-25  4.560E-15
2.884E+02  6.075E-25  4.648E-15
2.858E+02  6.247E-25  4.736E-15
2.831E+02  6.424E-25  4.824E-15
2.805E+02  6.603E-25  4.914E-15
2.780E+02  6.787E-25  5.005E-15
2.754E+02  6.975E-25  5.096E-15
2.729E+02  7.167E-25  5.188E-15
2.704E+02  7.364E-25  5.282E-15
2.679E+02  7.564E-25  5.376E-15
2.655E+02  7.769E-25  5.470E-15
2.630E+02  7.977E-25  5.566E-15
2.606E+02  8.190E-25  5.662E-15
2.582E+02  8.407E-25  5.759E-15
2.559E+02  8.627E-25  5.855E-15
2.535E+02  8.850E-25  5.951E-15
2.512E+02  9.075E-25  6.047E-15
2.489E+02  9.301E-25  6.140E-15
2.466E+02  9.525E-25  6.231E-15
2.443E+02  9.752E-25  6.320E-15
2.421E+02  9.980E-25  6.409E-15
2.399E+02  1.021E-24  6.496E-15
2.377E+02  1.044E-24  6.580E-15
2.355E+02  1.067E-24  6.664E-15
2.333E+02  1.090E-24  6.747E-15
2.312E+02  1.114E-24  6.830E-15
2.291E+02  1.137E-24  6.912E-15
2.270E+02  1.162E-24  6.993E-15
2.249E+02  1.186E-24  7.074E-15
2.228E+02  1.210E-24  7.154E-15
2.208E+02  1.235E-24  7.233E-15
2.188E+02  1.260E-24  7.312E-15
2.168E+02  1.285E-24  7.389E-15
2.148E+02  1.310E-24  7.465E-15
2.128E+02  1.336E-24  7.541E-15
2.109E+02  1.361E-24  7.615E-15
2.089E+02  1.387E-24  7.688E-15
2.070E+02  1.413E-24  7.760E-15
2.051E+02  1.439E-24  7.830E-15
2.032E+02  1.465E-24  7.899E-15
2.014E+02  1.491E-24  7.966E-15
1.995E+02  1.518E-24  8.032E-15
1.977E+02  1.544E-24  8.097E-15
1.959E+02  1.570E-24  8.160E-15
1.941E+02  1.597E-24  8.221E-15
1.923E+02  1.623E-24  8.281E-15
1.905E+02  1.650E-24  8.339E-15
1.888E+02  1.676E-24  8.396E-15
1.871E+02  1.703E-24  8.450E-15
1.854E+02  1.729E-24  8.503E-15
1.837E+02  1.756E-24  8.554E-15
1.820E+02  1.782E-24  8.604E-15
1.803E+02  1.809E-24  8.651E-15
1.786E+02  1.835E-24  8.697E-15
1.770E+02  1.862E-24  8.742E-15
1.754E+02  1.888E-24  8.784E-15
1.738E+02  1.914E-24  8.825E-15
1.722E+02  1.941E-24  8.864E-15
1.706E+02  1.967E-24  8.901E-15
1.690E+02  1.993E-24  8.937E-15
1.675E+02  2.019E-24  8.971E-15
1.660E+02  2.045E-24  9.004E-15
1.644E+02  2.071E-24  9.035E-15
1.629E+02  2.098E-24  9.065E-15
1.614E+02  2.124E-24  9.094E-15
1.600E+02  2.150E-24  9.121E-15
1.585E+02  2.176E-24  9.147E-15
1.570E+02  2.202E-24  9.173E-15
1.556E+02  2.228E-24  9.197E-15
1.542E+02  2.255E-24  9.221E-15
1.528E+02  2.281E-24  9.244E-15
1.514E+02  2.308E-24  9.266E-15
1.500E+02  2.334E-24  9.286E-15
1.486E+02  2.360E-24  9.304E-15
1.472E+02  2.386E-24  9.319E-15
1.459E+02  2.411E-24  9.329E-15
1.445E+02  2.434E-24  9.332E-15
1.432E+02  2.455E-24  9.327E-15
1.419E+02  2.473E-24  9.309E-15
1.406E+02  2.487E-24  9.277E-15
1.393E+02  2.497E-24  9.228E-15
1.380E+02  2.502E-24  9.161E-15
1.368E+02  2.503E-24  9.079E-15
1.355E+02  2.499E-24  8.983E-15
1.343E+02  2.493E-24  8.878E-15
1.330E+02  2.484E-24  8.767E-15
1.318E+02  2.475E-24  8.654E-15
1.306E+02  2.465E-24  8.539E-15
1.294E+02  2.454E-24  8.425E-15
1.282E+02  2.444E-24  8.312E-15
1.271E+02  2.433E-24  8.199E-15
1.259E+02  2.422E-24  8.089E-15
1.247E+02  2.412E-24  7.980E-15
1.236E+02  2.401E-24  7.873E-15
1.225E+02  2.391E-24  7.767E-15
1.213E+02  2.381E-24  7.662E-15
1.202E+02  2.370E-24  7.558E-15
1.191E+02  2.359E-24  7.455E-15
1.180E+02  2.348E-24  7.352E-15
1.169E+02  2.337E-24  7.249E-15
1.159E+02  2.325E-24  7.145E-15
1.148E+02  2.312E-24  7.043E-15
1.138E+02  2.300E-24  6.940E-15
1.127E+02  2.287E-24  6.838E-15
1.117E+02  2.274E-24  6.736E-15
1.107E+02  2.260E-24  6.634E-15
1.096E+02  2.246E-24  6.532E-15
1.086E+02  2.231E-24  6.430E-15
1.076E+02  2.216E-24  6.328E-15
1.067E+02  2.200E-24  6.225E-15
1.057E+02  2.184E-24  6.123E-15
1.047E+02  2.167E-24  6.020E-15
1.038E+02  2.150E-24  5.917E-15
1.028E+02  2.132E-24  5.814E-15
1.019E+02  2.114E-24  5.710E-15
1.009E+02  2.094E-24  5.607E-15
1.000E+02  2.075E-24  5.503E-15
9.908E+01  2.054E-24  5.399E-15
9.817E+01  2.033E-24  5.295E-15
9.727E+01  2.012E-24  5.191E-15
9.638E+01  1.990E-24  5.087E-15
9.550E+01  1.967E-24  4.984E-15
9.462E+01  1.945E-24  4.881E-15
9.376E+01  1.921E-24  4.778E-15
9.290E+01  1.897E-24  4.675E-15
9.204E+01  1.873E-24  4.572E-15
9.120E+01  1.848E-24  4.470E-15
9.036E+01  1.823E-24  4.369E-15
8.954E+01  1.797E-24  4.268E-15
8.872E+01  1.771E-24  4.169E-15
8.790E+01  1.745E-24  4.069E-15
8.710E+01  1.719E-24  3.971E-15
8.630E+01  1.692E-24  3.873E-15
8.551E+01  1.665E-24  3.777E-15
8.472E+01  1.638E-24  3.680E-15
8.395E+01  1.610E-24  3.586E-15
8.318E+01  1.583E-24  3.493E-15
8.241E+01  1.556E-24  3.401E-15
8.166E+01  1.528E-24  3.310E-15
8.091E+01  1.500E-24  3.220E-15
8.017E+01  1.473E-24  3.132E-15
7.943E+01  1.445E-24  3.044E-15
7.870E+01  1.417E-24  2.959E-15
7.798E+01  1.389E-24  2.874E-15
7.727E+01  1.362E-24  2.791E-15
7.656E+01  1.334E-24  2.709E-15
7.586E+01  1.306E-24  2.629E-15
7.516E+01  1.279E-24  2.550E-15
7.447E+01  1.252E-24  2.473E-15
7.379E+01  1.224E-24  2.396E-15
7.311E+01  1.197E-24  2.322E-15
7.244E+01  1.170E-24  2.248E-15
7.178E+01  1.143E-24  2.177E-15
7.112E+01  1.117E-24  2.107E-15
7.047E+01  1.091E-24  2.039E-15
6.982E+01  1.065E-24  1.973E-15
6.918E+01  1.040E-24  1.908E-15
6.855E+01  1.015E-24  1.845E-15
6.792E+01  9.899E-25  1.783E-15
6.730E+01  9.655E-25  1.724E-15
6.668E+01  9.415E-25  1.665E-15
6.607E+01  9.179E-25  1.609E-15
6.546E+01  8.944E-25  1.553E-15
6.486E+01  8.716E-25  1.500E-15
