Dust emission from Draine & Li (2007): ApJ 657, 810-837
================================================================
         6 = grain model
 4.000E-08 4.000E-01 3.750E-05 = a_01 (cm) , sigma_1 , b_C1/0.92
 2.500E-07 4.000E-01 1.250E-05 = a_02 (cm) , sigma_2 , b_C2/0.92
 8.000E-01 1.000E+03 2.000E+00 = Umin , Umax, beta (dN/dU propto U^{-beta})
 5.709E+00 = <U> 
     mmp83 = radfield
 2.575E-23 = power/H (erg s-1)
 band   nu*P_nu(band) j_nu(band)
 (um)   (erg s-1 H-1)(Jy cm2 sr-1 H-1)
1.270E+00  8.680E-26  2.924E-18 COBE-DIRBE
2.220E+00  1.106E-25  6.516E-18 COBE-DIRBE
3.530E+00  7.248E-25  6.787E-17 COBE-DIRBE
4.880E+00  3.365E-25  4.356E-17 COBE-DIRBE
1.229E+01  2.988E-24  9.740E-16 COBE-DIRBE
2.079E+01  2.549E-24  1.406E-15 COBE-DIRBE
5.599E+01  1.263E-23  1.875E-14 COBE-DIRBE
9.770E+01  1.119E-23  2.899E-14 COBE-DIRBE
1.479E+02  6.937E-24  2.721E-14 COBE-DIRBE
2.479E+02  2.015E-24  1.325E-14 COBE-DIRBE
1.200E+01  3.155E-24  1.004E-15 IRAS
2.500E+01  2.771E-24  1.838E-15 IRAS
6.000E+01  1.264E-23  2.012E-14 IRAS
1.000E+02  1.098E-23  2.912E-14 IRAS
3.550E+00  8.430E-25  7.938E-17 SST-IRAC
4.493E+00  2.356E-25  2.808E-17 SST-IRAC
5.731E+00  1.996E-24  3.034E-16 SST-IRAC
7.872E+00  4.625E-24  9.657E-16 SST-IRAC
2.368E+01  2.353E-24  1.478E-15 SST-MIPS
7.142E+01  1.188E-23  2.251E-14 SST-MIPS
1.559E+02  5.940E-24  2.456E-14 SST-MIPS
1.600E+01  2.464E-24  1.046E-15 SST-IRSPU
2.200E+01  2.417E-24  1.410E-15 SST-IRSPU











lambda    nu*dP/dnu     j_nu
 (um)   (erg s-1 H-1)(Jy cm2 sr-1 H-1)
1.000E+04  6.096E-31  1.617E-19
9.908E+03  6.319E-31  1.661E-19
9.817E+03  6.550E-31  1.706E-19
9.727E+03  6.789E-31  1.752E-19
9.638E+03  7.037E-31  1.799E-19
9.550E+03  7.294E-31  1.848E-19
9.462E+03  7.561E-31  1.898E-19
9.376E+03  7.837E-31  1.949E-19
9.290E+03  8.124E-31  2.002E-19
9.204E+03  8.421E-31  2.056E-19
9.120E+03  8.729E-31  2.112E-19
9.036E+03  9.048E-31  2.169E-19
8.954E+03  9.378E-31  2.227E-19
8.872E+03  9.719E-31  2.287E-19
8.790E+03  1.007E-30  2.349E-19
8.710E+03  1.044E-30  2.412E-19
8.630E+03  1.082E-30  2.477E-19
8.551E+03  1.121E-30  2.543E-19
8.472E+03  1.162E-30  2.612E-19
8.395E+03  1.205E-30  2.682E-19
8.318E+03  1.249E-30  2.755E-19
8.241E+03  1.294E-30  2.829E-19
8.166E+03  1.342E-30  2.906E-19
8.091E+03  1.391E-30  2.985E-19
8.017E+03  1.442E-30  3.066E-19
7.943E+03  1.494E-30  3.149E-19
7.870E+03  1.549E-30  3.234E-19
7.798E+03  1.606E-30  3.322E-19
7.727E+03  1.665E-30  3.412E-19
7.656E+03  1.726E-30  3.505E-19
7.586E+03  1.789E-30  3.601E-19
7.516E+03  1.855E-30  3.699E-19
7.447E+03  1.923E-30  3.800E-19
7.379E+03  1.994E-30  3.903E-19
7.311E+03  2.068E-30  4.010E-19
7.244E+03  2.144E-30  4.120E-19
7.178E+03  2.223E-30  4.232E-19
7.112E+03  2.305E-30  4.348E-19
7.047E+03  2.390E-30  4.467E-19
6.982E+03  2.478E-30  4.590E-19
6.918E+03  2.570E-30  4.715E-19
6.855E+03  2.664E-30  4.845E-19
6.792E+03  2.763E-30  4.977E-19
6.730E+03  2.865E-30  5.114E-19
6.668E+03  2.971E-30  5.254E-19
6.607E+03  3.081E-30  5.399E-19
6.546E+03  3.195E-30  5.548E-19
6.486E+03  3.313E-30  5.700E-19
6.427E+03  3.436E-30  5.857E-19
6.368E+03  3.563E-30  6.019E-19
6.310E+03  3.696E-30  6.185E-19
6.252E+03  3.833E-30  6.356E-19
6.194E+03  3.975E-30  6.532E-19
6.138E+03  4.123E-30  6.713E-19
6.081E+03  4.277E-30  6.899E-19
6.026E+03  4.436E-30  7.090E-19
5.970E+03  4.601E-30  7.287E-19
5.916E+03  4.773E-30  7.489E-19
5.861E+03  4.951E-30  7.697E-19
5.808E+03  5.136E-30  7.911E-19
5.754E+03  5.327E-30  8.132E-19
5.702E+03  5.526E-30  8.358E-19
5.649E+03  5.733E-30  8.591E-19
5.598E+03  5.948E-30  8.831E-19
5.546E+03  6.170E-30  9.078E-19
5.495E+03  6.401E-30  9.331E-19
5.445E+03  6.641E-30  9.592E-19
5.395E+03  6.891E-30  9.861E-19
5.346E+03  7.149E-30  1.014E-18
5.297E+03  7.418E-30  1.042E-18
5.248E+03  7.696E-30  1.071E-18
5.200E+03  7.986E-30  1.101E-18
5.152E+03  8.286E-30  1.132E-18
5.105E+03  8.598E-30  1.164E-18
5.058E+03  8.921E-30  1.197E-18
5.012E+03  9.258E-30  1.231E-18
4.966E+03  9.606E-30  1.265E-18
4.920E+03  9.968E-30  1.301E-18
4.875E+03  1.034E-29  1.338E-18
4.831E+03  1.073E-29  1.375E-18
4.786E+03  1.114E-29  1.414E-18
4.742E+03  1.156E-29  1.454E-18
4.699E+03  1.200E-29  1.495E-18
4.656E+03  1.245E-29  1.538E-18
4.613E+03  1.292E-29  1.581E-18
4.571E+03  1.341E-29  1.626E-18
4.529E+03  1.392E-29  1.672E-18
4.487E+03  1.445E-29  1.720E-18
4.446E+03  1.500E-29  1.769E-18
4.406E+03  1.557E-29  1.819E-18
4.365E+03  1.616E-29  1.871E-18
4.325E+03  1.677E-29  1.924E-18
4.285E+03  1.741E-29  1.979E-18
4.246E+03  1.808E-29  2.036E-18
4.207E+03  1.876E-29  2.094E-18
4.169E+03  1.948E-29  2.154E-18
4.130E+03  2.022E-29  2.216E-18
4.093E+03  2.099E-29  2.279E-18
4.055E+03  2.180E-29  2.345E-18
4.018E+03  2.263E-29  2.412E-18
3.981E+03  2.349E-29  2.481E-18
3.945E+03  2.439E-29  2.552E-18
3.908E+03  2.532E-29  2.625E-18
3.873E+03  2.629E-29  2.701E-18
3.837E+03  2.730E-29  2.778E-18
3.802E+03  2.834E-29  2.858E-18
3.767E+03  2.943E-29  2.941E-18
3.733E+03  3.056E-29  3.026E-18
3.698E+03  3.173E-29  3.113E-18
3.664E+03  3.295E-29  3.203E-18
3.631E+03  3.422E-29  3.296E-18
3.597E+03  3.554E-29  3.391E-18
3.565E+03  3.690E-29  3.489E-18
3.532E+03  3.833E-29  3.591E-18
3.499E+03  3.980E-29  3.695E-18
3.467E+03  4.134E-29  3.802E-18
3.436E+03  4.294E-29  3.913E-18
3.404E+03  4.459E-29  4.027E-18
3.373E+03  4.632E-29  4.144E-18
3.342E+03  4.811E-29  4.265E-18
3.311E+03  4.997E-29  4.389E-18
3.281E+03  5.191E-29  4.518E-18
3.251E+03  5.392E-29  4.650E-18
3.221E+03  5.601E-29  4.786E-18
3.192E+03  5.819E-29  4.926E-18
3.162E+03  6.045E-29  5.070E-18
3.133E+03  6.280E-29  5.219E-18
3.105E+03  6.524E-29  5.372E-18
3.076E+03  6.778E-29  5.530E-18
3.048E+03  7.041E-29  5.693E-18
3.020E+03  7.316E-29  5.860E-18
2.992E+03  7.601E-29  6.033E-18
2.965E+03  7.896E-29  6.210E-18
2.938E+03  8.203E-29  6.392E-18
2.911E+03  8.523E-29  6.580E-18
2.884E+03  8.855E-29  6.774E-18
2.858E+03  9.200E-29  6.973E-18
2.831E+03  9.559E-29  7.179E-18
2.805E+03  9.932E-29  7.391E-18
2.780E+03  1.032E-28  7.609E-18
2.754E+03  1.072E-28  7.834E-18
2.729E+03  1.114E-28  8.066E-18
2.704E+03  1.158E-28  8.305E-18
2.679E+03  1.203E-28  8.551E-18
2.655E+03  1.250E-28  8.804E-18
2.630E+03  1.299E-28  9.066E-18
2.606E+03  1.350E-28  9.335E-18
2.582E+03  1.403E-28  9.612E-18
2.559E+03  1.458E-28  9.898E-18
2.535E+03  1.516E-28  1.019E-17
2.512E+03  1.575E-28  1.050E-17
2.489E+03  1.637E-28  1.081E-17
2.466E+03  1.702E-28  1.113E-17
2.443E+03  1.769E-28  1.146E-17
2.421E+03  1.839E-28  1.181E-17
2.399E+03  1.911E-28  1.216E-17
2.377E+03  1.986E-28  1.252E-17
2.355E+03  2.065E-28  1.290E-17
2.333E+03  2.146E-28  1.329E-17
2.312E+03  2.231E-28  1.368E-17
2.291E+03  2.319E-28  1.409E-17
2.270E+03  2.411E-28  1.452E-17
2.249E+03  2.506E-28  1.495E-17
2.228E+03  2.606E-28  1.540E-17
2.208E+03  2.709E-28  1.587E-17
2.188E+03  2.816E-28  1.634E-17
2.168E+03  2.928E-28  1.683E-17
2.148E+03  3.044E-28  1.734E-17
2.128E+03  3.165E-28  1.786E-17
2.109E+03  3.290E-28  1.840E-17
2.089E+03  3.421E-28  1.896E-17
2.070E+03  3.556E-28  1.953E-17
2.051E+03  3.698E-28  2.012E-17
2.032E+03  3.845E-28  2.073E-17
2.014E+03  3.997E-28  2.135E-17
1.995E+03  4.156E-28  2.200E-17
1.977E+03  4.321E-28  2.266E-17
1.959E+03  4.493E-28  2.335E-17
1.941E+03  4.672E-28  2.405E-17
1.923E+03  4.858E-28  2.478E-17
1.905E+03  5.051E-28  2.553E-17
1.888E+03  5.252E-28  2.630E-17
1.871E+03  5.461E-28  2.710E-17
1.854E+03  5.679E-28  2.792E-17
1.837E+03  5.905E-28  2.877E-17
1.820E+03  6.140E-28  2.964E-17
1.803E+03  6.385E-28  3.054E-17
1.786E+03  6.639E-28  3.146E-17
1.770E+03  6.904E-28  3.242E-17
1.754E+03  7.179E-28  3.340E-17
1.738E+03  7.466E-28  3.441E-17
1.722E+03  7.764E-28  3.546E-17
1.706E+03  8.073E-28  3.654E-17
1.690E+03  8.395E-28  3.765E-17
1.675E+03  8.731E-28  3.879E-17
1.660E+03  9.079E-28  3.997E-17
1.644E+03  9.441E-28  4.118E-17
1.629E+03  9.818E-28  4.243E-17
1.614E+03  1.021E-27  4.372E-17
1.600E+03  1.062E-27  4.505E-17
1.585E+03  1.104E-27  4.642E-17
1.570E+03  1.148E-27  4.783E-17
1.556E+03  1.194E-27  4.929E-17
1.542E+03  1.242E-27  5.078E-17
1.528E+03  1.291E-27  5.233E-17
1.514E+03  1.343E-27  5.392E-17
1.500E+03  1.397E-27  5.555E-17
1.486E+03  1.452E-27  5.724E-17
1.472E+03  1.510E-27  5.899E-17
1.459E+03  1.571E-27  6.078E-17
1.445E+03  1.633E-27  6.263E-17
1.432E+03  1.699E-27  6.453E-17
1.419E+03  1.767E-27  6.650E-17
1.406E+03  1.837E-27  6.852E-17
1.393E+03  1.910E-27  7.060E-17
1.380E+03  1.987E-27  7.275E-17
1.368E+03  2.066E-27  7.496E-17
1.355E+03  2.149E-27  7.724E-17
1.343E+03  2.234E-27  7.959E-17
1.330E+03  2.324E-27  8.200E-17
1.318E+03  2.416E-27  8.449E-17
1.306E+03  2.513E-27  8.706E-17
1.294E+03  2.613E-27  8.970E-17
1.282E+03  2.717E-27  9.243E-17
1.271E+03  2.826E-27  9.523E-17
1.259E+03  2.938E-27  9.812E-17
1.247E+03  3.055E-27  1.011E-16
1.236E+03  3.177E-27  1.042E-16
1.225E+03  3.303E-27  1.073E-16
1.213E+03  3.435E-27  1.106E-16
1.202E+03  3.572E-27  1.139E-16
1.191E+03  3.714E-27  1.173E-16
1.180E+03  3.861E-27  1.209E-16
1.169E+03  4.015E-27  1.245E-16
1.159E+03  4.174E-27  1.283E-16
1.148E+03  4.340E-27  1.322E-16
1.138E+03  4.513E-27  1.362E-16
1.127E+03  4.692E-27  1.403E-16
1.117E+03  4.878E-27  1.445E-16
1.107E+03  5.071E-27  1.489E-16
1.096E+03  5.272E-27  1.533E-16
1.086E+03  5.481E-27  1.579E-16
1.076E+03  5.698E-27  1.627E-16
1.067E+03  5.923E-27  1.676E-16
1.057E+03  6.157E-27  1.726E-16
1.047E+03  6.401E-27  1.778E-16
1.038E+03  6.653E-27  1.831E-16
1.028E+03  6.916E-27  1.886E-16
1.019E+03  7.188E-27  1.942E-16
1.009E+03  7.472E-27  2.000E-16
1.000E+03  7.766E-27  2.060E-16
9.908E+02  8.072E-27  2.122E-16
9.817E+02  8.390E-27  2.185E-16
9.727E+02  8.720E-27  2.250E-16
9.638E+02  9.063E-27  2.317E-16
9.550E+02  9.420E-27  2.386E-16
9.462E+02  9.790E-27  2.457E-16
9.376E+02  1.017E-26  2.530E-16
9.290E+02  1.057E-26  2.605E-16
9.204E+02  1.099E-26  2.683E-16
9.120E+02  1.142E-26  2.762E-16
9.036E+02  1.186E-26  2.844E-16
8.954E+02  1.233E-26  2.928E-16
8.872E+02  1.281E-26  3.014E-16
8.790E+02  1.331E-26  3.103E-16
8.710E+02  1.383E-26  3.194E-16
8.630E+02  1.437E-26  3.288E-16
8.551E+02  1.492E-26  3.385E-16
8.472E+02  1.550E-26  3.484E-16
8.395E+02  1.610E-26  3.586E-16
8.318E+02  1.673E-26  3.691E-16
8.241E+02  1.738E-26  3.798E-16
8.166E+02  1.805E-26  3.909E-16
8.091E+02  1.874E-26  4.023E-16
8.017E+02  1.947E-26  4.140E-16
7.943E+02  2.022E-26  4.260E-16
7.870E+02  2.099E-26  4.383E-16
7.798E+02  2.180E-26  4.510E-16
7.727E+02  2.264E-26  4.640E-16
7.656E+02  2.351E-26  4.774E-16
7.586E+02  2.441E-26  4.911E-16
7.516E+02  2.534E-26  5.052E-16
7.447E+02  2.631E-26  5.198E-16
7.379E+02  2.732E-26  5.347E-16
7.311E+02  2.837E-26  5.501E-16
7.244E+02  2.945E-26  5.659E-16
7.178E+02  3.058E-26  5.822E-16
7.112E+02  3.174E-26  5.989E-16
7.047E+02  3.296E-26  6.161E-16
6.982E+02  3.421E-26  6.337E-16
6.918E+02  3.552E-26  6.518E-16
6.855E+02  3.687E-26  6.705E-16
6.792E+02  3.828E-26  6.896E-16
6.730E+02  3.973E-26  7.092E-16
6.668E+02  4.123E-26  7.293E-16
6.607E+02  4.280E-26  7.500E-16
6.546E+02  4.442E-26  7.714E-16
6.486E+02  4.611E-26  7.934E-16
6.427E+02  4.786E-26  8.160E-16
6.368E+02  4.968E-26  8.392E-16
6.310E+02  5.157E-26  8.630E-16
6.252E+02  5.352E-26  8.876E-16
6.194E+02  5.555E-26  9.128E-16
6.138E+02  5.765E-26  9.386E-16
6.081E+02  5.984E-26  9.653E-16
6.026E+02  6.210E-26  9.926E-16
5.970E+02  6.445E-26  1.021E-15
5.916E+02  6.689E-26  1.050E-15
5.861E+02  6.941E-26  1.079E-15
5.808E+02  7.203E-26  1.110E-15
5.754E+02  7.475E-26  1.141E-15
5.702E+02  7.756E-26  1.173E-15
5.649E+02  8.048E-26  1.206E-15
5.598E+02  8.351E-26  1.240E-15
5.546E+02  8.665E-26  1.275E-15
5.495E+02  8.991E-26  1.311E-15
5.445E+02  9.329E-26  1.347E-15
5.395E+02  9.679E-26  1.385E-15
5.346E+02  1.004E-25  1.424E-15
5.297E+02  1.042E-25  1.464E-15
5.248E+02  1.081E-25  1.505E-15
5.200E+02  1.121E-25  1.547E-15
5.152E+02  1.163E-25  1.590E-15
5.105E+02  1.207E-25  1.634E-15
5.058E+02  1.252E-25  1.679E-15
5.012E+02  1.298E-25  1.726E-15
4.966E+02  1.347E-25  1.774E-15
4.920E+02  1.397E-25  1.823E-15
4.875E+02  1.448E-25  1.873E-15
4.831E+02  1.502E-25  1.925E-15
4.786E+02  1.558E-25  1.978E-15
4.742E+02  1.616E-25  2.032E-15
4.699E+02  1.675E-25  2.088E-15
4.656E+02  1.737E-25  2.145E-15
4.613E+02  1.801E-25  2.204E-15
4.571E+02  1.868E-25  2.264E-15
4.529E+02  1.936E-25  2.326E-15
4.487E+02  2.007E-25  2.390E-15
4.446E+02  2.081E-25  2.455E-15
4.406E+02  2.157E-25  2.521E-15
4.365E+02  2.236E-25  2.589E-15
4.325E+02  2.318E-25  2.659E-15
4.285E+02  2.403E-25  2.731E-15
4.246E+02  2.490E-25  2.805E-15
4.207E+02  2.581E-25  2.880E-15
4.169E+02  2.674E-25  2.957E-15
4.130E+02  2.771E-25  3.036E-15
4.093E+02  2.872E-25  3.118E-15
4.055E+02  2.976E-25  3.201E-15
4.018E+02  3.083E-25  3.286E-15
3.981E+02  3.194E-25  3.373E-15
3.945E+02  3.309E-25  3.463E-15
3.908E+02  3.428E-25  3.554E-15
3.873E+02  3.551E-25  3.648E-15
3.837E+02  3.679E-25  3.744E-15
3.802E+02  3.810E-25  3.843E-15
3.767E+02  3.946E-25  3.943E-15
3.733E+02  4.087E-25  4.046E-15
3.698E+02  4.232E-25  4.152E-15
3.664E+02  4.383E-25  4.260E-15
3.631E+02  4.538E-25  4.370E-15
3.597E+02  4.698E-25  4.483E-15
3.565E+02  4.864E-25  4.599E-15
3.532E+02  5.035E-25  4.717E-15
3.499E+02  5.212E-25  4.838E-15
3.467E+02  5.395E-25  4.962E-15
3.436E+02  5.584E-25  5.088E-15
3.404E+02  5.778E-25  5.218E-15
3.373E+02  5.980E-25  5.350E-15
3.342E+02  6.187E-25  5.485E-15
3.311E+02  6.401E-25  5.623E-15
3.281E+02  6.623E-25  5.764E-15
3.251E+02  6.851E-25  5.907E-15
3.221E+02  7.086E-25  6.055E-15
3.192E+02  7.329E-25  6.205E-15
3.162E+02  7.580E-25  6.358E-15
3.133E+02  7.838E-25  6.514E-15
3.105E+02  8.104E-25  6.674E-15
3.076E+02  8.379E-25  6.837E-15
3.048E+02  8.662E-25  7.003E-15
3.020E+02  8.954E-25  7.173E-15
2.992E+02  9.255E-25  7.346E-15
2.965E+02  9.565E-25  7.522E-15
2.938E+02  9.884E-25  7.702E-15
2.911E+02  1.021E-24  7.885E-15
2.884E+02  1.055E-24  8.072E-15
2.858E+02  1.090E-24  8.262E-15
2.831E+02  1.126E-24  8.456E-15
2.805E+02  1.163E-24  8.654E-15
2.780E+02  1.201E-24  8.855E-15
2.754E+02  1.240E-24  9.060E-15
2.729E+02  1.280E-24  9.269E-15
2.704E+02  1.322E-24  9.483E-15
2.679E+02  1.365E-24  9.700E-15
2.655E+02  1.409E-24  9.922E-15
2.630E+02  1.454E-24  1.015E-14
2.606E+02  1.501E-24  1.038E-14
2.582E+02  1.549E-24  1.061E-14
2.559E+02  1.598E-24  1.084E-14
2.535E+02  1.648E-24  1.108E-14
2.512E+02  1.699E-24  1.132E-14
2.489E+02  1.751E-24  1.156E-14
2.466E+02  1.803E-24  1.180E-14
2.443E+02  1.856E-24  1.203E-14
2.421E+02  1.910E-24  1.227E-14
2.399E+02  1.966E-24  1.251E-14
2.377E+02  2.021E-24  1.274E-14
2.355E+02  2.077E-24  1.298E-14
2.333E+02  2.135E-24  1.322E-14
2.312E+02  2.194E-24  1.346E-14
2.291E+02  2.255E-24  1.370E-14
2.270E+02  2.316E-24  1.395E-14
2.249E+02  2.379E-24  1.419E-14
2.228E+02  2.443E-24  1.444E-14
2.208E+02  2.509E-24  1.469E-14
2.188E+02  2.576E-24  1.495E-14
2.168E+02  2.644E-24  1.520E-14
2.148E+02  2.714E-24  1.546E-14
2.128E+02  2.785E-24  1.572E-14
2.109E+02  2.857E-24  1.598E-14
2.089E+02  2.931E-24  1.624E-14
2.070E+02  3.006E-24  1.651E-14
2.051E+02  3.082E-24  1.677E-14
2.032E+02  3.160E-24  1.704E-14
2.014E+02  3.239E-24  1.730E-14
1.995E+02  3.320E-24  1.757E-14
1.977E+02  3.402E-24  1.784E-14
1.959E+02  3.486E-24  1.811E-14
1.941E+02  3.571E-24  1.838E-14
1.923E+02  3.657E-24  1.866E-14
1.905E+02  3.745E-24  1.893E-14
1.888E+02  3.835E-24  1.920E-14
1.871E+02  3.926E-24  1.948E-14
1.854E+02  4.018E-24  1.976E-14
1.837E+02  4.112E-24  2.003E-14
1.820E+02  4.208E-24  2.031E-14
1.803E+02  4.305E-24  2.059E-14
1.786E+02  4.404E-24  2.087E-14
1.770E+02  4.504E-24  2.115E-14
1.754E+02  4.606E-24  2.143E-14
1.738E+02  4.710E-24  2.171E-14
1.722E+02  4.816E-24  2.200E-14
1.706E+02  4.923E-24  2.228E-14
1.690E+02  5.032E-24  2.257E-14
1.675E+02  5.144E-24  2.285E-14
1.660E+02  5.257E-24  2.314E-14
1.644E+02  5.373E-24  2.344E-14
1.629E+02  5.491E-24  2.373E-14
1.614E+02  5.611E-24  2.403E-14
1.600E+02  5.733E-24  2.433E-14
1.585E+02  5.858E-24  2.463E-14
1.570E+02  5.986E-24  2.493E-14
1.556E+02  6.117E-24  2.525E-14
1.542E+02  6.251E-24  2.556E-14
1.528E+02  6.388E-24  2.588E-14
1.514E+02  6.528E-24  2.621E-14
1.500E+02  6.671E-24  2.654E-14
1.486E+02  6.816E-24  2.686E-14
1.472E+02  6.964E-24  2.720E-14
1.459E+02  7.112E-24  2.752E-14
1.445E+02  7.260E-24  2.784E-14
1.432E+02  7.405E-24  2.813E-14
1.419E+02  7.545E-24  2.840E-14
1.406E+02  7.677E-24  2.863E-14
1.393E+02  7.798E-24  2.882E-14
1.380E+02  7.908E-24  2.896E-14
1.368E+02  8.007E-24  2.905E-14
1.355E+02  8.095E-24  2.910E-14
1.343E+02  8.177E-24  2.912E-14
1.330E+02  8.254E-24  2.913E-14
1.318E+02  8.330E-24  2.913E-14
1.306E+02  8.405E-24  2.912E-14
1.294E+02  8.481E-24  2.911E-14
1.282E+02  8.558E-24  2.911E-14
1.271E+02  8.636E-24  2.911E-14
1.259E+02  8.717E-24  2.911E-14
1.247E+02  8.801E-24  2.912E-14
1.236E+02  8.886E-24  2.913E-14
1.225E+02  8.973E-24  2.915E-14
1.213E+02  9.062E-24  2.917E-14
1.202E+02  9.153E-24  2.919E-14
1.191E+02  9.245E-24  2.921E-14
1.180E+02  9.338E-24  2.924E-14
1.169E+02  9.431E-24  2.926E-14
1.159E+02  9.523E-24  2.927E-14
1.148E+02  9.617E-24  2.929E-14
1.138E+02  9.713E-24  2.931E-14
1.127E+02  9.807E-24  2.932E-14
1.117E+02  9.903E-24  2.934E-14
1.107E+02  1.000E-23  2.935E-14
1.096E+02  1.010E-23  2.937E-14
1.086E+02  1.019E-23  2.938E-14
1.076E+02  1.029E-23  2.938E-14
1.067E+02  1.039E-23  2.938E-14
1.057E+02  1.048E-23  2.938E-14
1.047E+02  1.058E-23  2.938E-14
1.038E+02  1.067E-23  2.937E-14
1.028E+02  1.076E-23  2.935E-14
1.019E+02  1.086E-23  2.933E-14
1.009E+02  1.095E-23  2.931E-14
1.000E+02  1.104E-23  2.928E-14
9.908E+01  1.112E-23  2.924E-14
9.817E+01  1.121E-23  2.920E-14
9.727E+01  1.130E-23  2.915E-14
9.638E+01  1.138E-23  2.910E-14
9.550E+01  1.147E-23  2.904E-14
9.462E+01  1.155E-23  2.898E-14
9.376E+01  1.163E-23  2.891E-14
9.290E+01  1.170E-23  2.884E-14
9.204E+01  1.178E-23  2.876E-14
9.120E+01  1.185E-23  2.868E-14
9.036E+01  1.193E-23  2.859E-14
8.954E+01  1.200E-23  2.850E-14
8.872E+01  1.207E-23  2.840E-14
8.790E+01  1.214E-23  2.830E-14
8.710E+01  1.220E-23  2.819E-14
8.630E+01  1.226E-23  2.808E-14
8.551E+01  1.233E-23  2.796E-14
8.472E+01  1.238E-23  2.783E-14
8.395E+01  1.244E-23  2.771E-14
8.318E+01  1.250E-23  2.758E-14
8.241E+01  1.255E-23  2.744E-14
8.166E+01  1.261E-23  2.731E-14
8.091E+01  1.266E-23  2.717E-14
8.017E+01  1.271E-23  2.702E-14
7.943E+01  1.275E-23  2.687E-14
7.870E+01  1.280E-23  2.672E-14
7.798E+01  1.284E-23  2.656E-14
7.727E+01  1.288E-23  2.640E-14
7.656E+01  1.292E-23  2.623E-14
7.586E+01  1.295E-23  2.606E-14
7.516E+01  1.299E-23  2.589E-14
7.447E+01  1.302E-23  2.571E-14
7.379E+01  1.304E-23  2.553E-14
7.311E+01  1.307E-23  2.534E-14
7.244E+01  1.309E-23  2.515E-14
7.178E+01  1.311E-23  2.496E-14
7.112E+01  1.313E-23  2.476E-14
7.047E+01  1.314E-23  2.457E-14
6.982E+01  1.316E-23  2.437E-14
6.918E+01  1.317E-23  2.417E-14
6.855E+01  1.318E-23  2.397E-14
6.792E+01  1.319E-23  2.377E-14
6.730E+01  1.320E-23  2.356E-14
6.668E+01  1.320E-23  2.335E-14
6.607E+01  1.320E-23  2.314E-14
6.546E+01  1.320E-23  2.292E-14
6.486E+01  1.320E-23  2.271E-14
6.427E+01  1.320E-23  2.249E-14
6.368E+01  1.319E-23  2.228E-14
6.310E+01  1.318E-23  2.206E-14
6.252E+01  1.317E-23  2.184E-14
6.194E+01  1.316E-23  2.162E-14
6.138E+01  1.315E-23  2.140E-14
6.081E+01  1.313E-23  2.118E-14
6.026E+01  1.311E-23  2.096E-14
5.970E+01  1.309E-23  2.074E-14
5.916E+01  1.307E-23  2.051E-14
5.861E+01  1.305E-23  2.029E-14
5.808E+01  1.302E-23  2.006E-14
5.754E+01  1.300E-23  1.984E-14
5.702E+01  1.297E-23  1.962E-14
5.649E+01  1.294E-23  1.939E-14
5.598E+01  1.291E-23  1.917E-14
5.546E+01  1.288E-23  1.895E-14
5.495E+01  1.285E-23  1.873E-14
5.445E+01  1.281E-23  1.851E-14
5.395E+01  1.278E-23  1.829E-14
5.346E+01  1.274E-23  1.807E-14
5.297E+01  1.270E-23  1.785E-14
5.248E+01  1.266E-23  1.763E-14
5.200E+01  1.262E-23  1.741E-14
5.152E+01  1.258E-23  1.719E-14
5.105E+01  1.254E-23  1.698E-14
5.058E+01  1.249E-23  1.676E-14
5.012E+01  1.245E-23  1.655E-14
4.966E+01  1.240E-23  1.633E-14
