Dust emission from Draine & Li (2007): ApJ 657, 810-837
================================================================
         8 = grain model
 4.000E-08 4.000E-01 0.000E+00 = a_01 (cm) , sigma_1 , b_C1/0.92
 2.500E-07 4.000E-01 0.000E+00 = a_02 (cm) , sigma_2 , b_C2/0.92
 4.000E-01 4.000E-01 1.000E+00 = Umin , Umax, beta (dN/dU propto U^{-beta})
 4.000E-01 = <U> 
     mmp83 = radfield
 2.554E-25 = power/H (erg s-1)
 band   nu*P_nu(band) j_nu(band)
 (um)   (erg s-1 H-1)(Jy cm2 sr-1 H-1)
1.270E+00  5.166E-28  1.740E-20 COBE-DIRBE
2.220E+00  9.422E-28  5.548E-20 COBE-DIRBE
3.530E+00  1.058E-27  9.906E-20 COBE-DIRBE
4.880E+00  1.010E-27  1.307E-19 COBE-DIRBE
1.229E+01  9.553E-27  3.114E-18 COBE-DIRBE
2.079E+01  1.315E-26  7.249E-18 COBE-DIRBE
5.599E+01  2.301E-26  3.418E-17 COBE-DIRBE
9.770E+01  9.647E-26  2.500E-16 COBE-DIRBE
1.479E+02  1.852E-25  7.267E-16 COBE-DIRBE
2.479E+02  1.326E-25  8.716E-16 COBE-DIRBE
1.200E+01  9.758E-27  3.106E-18 IRAS
2.500E+01  1.353E-26  8.972E-18 IRAS
6.000E+01  2.657E-26  4.228E-17 IRAS
1.000E+02  1.026E-25  2.722E-16 IRAS
3.550E+00  1.060E-27  9.981E-20 SST-IRAC
4.493E+00  1.024E-27  1.220E-19 SST-IRAC
5.731E+00  1.043E-27  1.586E-19 SST-IRAC
7.872E+00  5.879E-27  1.228E-18 SST-IRAC
2.368E+01  1.303E-26  8.185E-18 SST-MIPS
7.142E+01  3.615E-26  6.848E-17 SST-MIPS
1.559E+02  1.875E-25  7.754E-16 SST-MIPS
1.600E+01  8.074E-27  3.427E-18 SST-IRSPU
2.200E+01  1.377E-26  8.037E-18 SST-IRSPU











lambda    nu*dP/dnu     j_nu
 (um)   (erg s-1 H-1)(Jy cm2 sr-1 H-1)
1.000E+04  1.377E-31  3.654E-20
9.908E+03  1.427E-31  3.751E-20
9.817E+03  1.479E-31  3.851E-20
9.727E+03  1.532E-31  3.953E-20
9.638E+03  1.587E-31  4.059E-20
9.550E+03  1.645E-31  4.167E-20
9.462E+03  1.704E-31  4.278E-20
9.376E+03  1.766E-31  4.391E-20
9.290E+03  1.830E-31  4.508E-20
9.204E+03  1.896E-31  4.628E-20
9.120E+03  1.964E-31  4.751E-20
9.036E+03  2.035E-31  4.878E-20
8.954E+03  2.108E-31  5.007E-20
8.872E+03  2.184E-31  5.139E-20
8.790E+03  2.262E-31  5.275E-20
8.710E+03  2.343E-31  5.414E-20
8.630E+03  2.428E-31  5.557E-20
8.551E+03  2.515E-31  5.704E-20
8.472E+03  2.605E-31  5.855E-20
8.395E+03  2.699E-31  6.010E-20
8.318E+03  2.796E-31  6.169E-20
8.241E+03  2.897E-31  6.333E-20
8.166E+03  3.001E-31  6.501E-20
8.091E+03  3.110E-31  6.674E-20
8.017E+03  3.222E-31  6.852E-20
7.943E+03  3.338E-31  7.034E-20
7.870E+03  3.459E-31  7.221E-20
7.798E+03  3.584E-31  7.414E-20
7.727E+03  3.714E-31  7.612E-20
7.656E+03  3.848E-31  7.815E-20
7.586E+03  3.988E-31  8.024E-20
7.516E+03  4.132E-31  8.238E-20
7.447E+03  4.282E-31  8.459E-20
7.379E+03  4.437E-31  8.685E-20
7.311E+03  4.598E-31  8.918E-20
7.244E+03  4.765E-31  9.157E-20
7.178E+03  4.938E-31  9.402E-20
7.112E+03  5.118E-31  9.655E-20
7.047E+03  5.304E-31  9.914E-20
6.982E+03  5.497E-31  1.018E-19
6.918E+03  5.696E-31  1.045E-19
6.855E+03  5.903E-31  1.073E-19
6.792E+03  6.118E-31  1.102E-19
6.730E+03  6.341E-31  1.132E-19
6.668E+03  6.571E-31  1.162E-19
6.607E+03  6.811E-31  1.194E-19
6.546E+03  7.059E-31  1.226E-19
6.486E+03  7.317E-31  1.259E-19
6.427E+03  7.584E-31  1.293E-19
6.368E+03  7.860E-31  1.328E-19
6.310E+03  8.148E-31  1.364E-19
6.252E+03  8.446E-31  1.401E-19
6.194E+03  8.754E-31  1.438E-19
6.138E+03  9.075E-31  1.477E-19
6.081E+03  9.407E-31  1.518E-19
6.026E+03  9.752E-31  1.559E-19
5.970E+03  1.011E-30  1.601E-19
5.916E+03  1.048E-30  1.645E-19
5.861E+03  1.086E-30  1.689E-19
5.808E+03  1.126E-30  1.735E-19
5.754E+03  1.168E-30  1.782E-19
5.702E+03  1.211E-30  1.831E-19
5.649E+03  1.255E-30  1.881E-19
5.598E+03  1.301E-30  1.932E-19
5.546E+03  1.349E-30  1.985E-19
5.495E+03  1.399E-30  2.039E-19
5.445E+03  1.451E-30  2.095E-19
5.395E+03  1.504E-30  2.152E-19
5.346E+03  1.560E-30  2.211E-19
5.297E+03  1.617E-30  2.272E-19
5.248E+03  1.677E-30  2.334E-19
5.200E+03  1.739E-30  2.398E-19
5.152E+03  1.803E-30  2.464E-19
5.105E+03  1.870E-30  2.532E-19
5.058E+03  1.939E-30  2.601E-19
5.012E+03  2.011E-30  2.673E-19
4.966E+03  2.085E-30  2.746E-19
4.920E+03  2.162E-30  2.822E-19
4.875E+03  2.242E-30  2.899E-19
4.831E+03  2.325E-30  2.979E-19
4.786E+03  2.411E-30  3.061E-19
4.742E+03  2.501E-30  3.146E-19
4.699E+03  2.594E-30  3.233E-19
4.656E+03  2.690E-30  3.322E-19
4.613E+03  2.790E-30  3.414E-19
4.571E+03  2.894E-30  3.508E-19
4.529E+03  3.001E-30  3.605E-19
4.487E+03  3.113E-30  3.705E-19
4.446E+03  3.229E-30  3.808E-19
4.406E+03  3.349E-30  3.914E-19
4.365E+03  3.474E-30  4.022E-19
4.325E+03  3.604E-30  4.134E-19
4.285E+03  3.738E-30  4.249E-19
4.246E+03  3.878E-30  4.367E-19
4.207E+03  4.022E-30  4.489E-19
4.169E+03  4.173E-30  4.614E-19
4.130E+03  4.329E-30  4.743E-19
4.093E+03  4.491E-30  4.875E-19
4.055E+03  4.659E-30  5.011E-19
4.018E+03  4.833E-30  5.151E-19
3.981E+03  5.014E-30  5.295E-19
3.945E+03  5.201E-30  5.442E-19
3.908E+03  5.396E-30  5.594E-19
3.873E+03  5.598E-30  5.751E-19
3.837E+03  5.808E-30  5.911E-19
3.802E+03  6.026E-30  6.077E-19
3.767E+03  6.252E-30  6.247E-19
3.733E+03  6.487E-30  6.422E-19
3.698E+03  6.730E-30  6.602E-19
3.664E+03  6.983E-30  6.788E-19
3.631E+03  7.246E-30  6.979E-19
3.597E+03  7.519E-30  7.175E-19
3.565E+03  7.802E-30  7.377E-19
3.532E+03  8.096E-30  7.584E-19
3.499E+03  8.401E-30  7.798E-19
3.467E+03  8.718E-30  8.018E-19
3.436E+03  9.047E-30  8.245E-19
3.404E+03  9.389E-30  8.478E-19
3.373E+03  9.743E-30  8.717E-19
3.342E+03  1.011E-29  8.964E-19
3.311E+03  1.049E-29  9.218E-19
3.281E+03  1.089E-29  9.479E-19
3.251E+03  1.130E-29  9.747E-19
3.221E+03  1.173E-29  1.002E-18
3.192E+03  1.218E-29  1.031E-18
3.162E+03  1.264E-29  1.060E-18
3.133E+03  1.312E-29  1.090E-18
3.105E+03  1.362E-29  1.121E-18
3.076E+03  1.413E-29  1.153E-18
3.048E+03  1.467E-29  1.186E-18
3.020E+03  1.523E-29  1.220E-18
2.992E+03  1.581E-29  1.255E-18
2.965E+03  1.640E-29  1.290E-18
2.938E+03  1.703E-29  1.327E-18
2.911E+03  1.767E-29  1.364E-18
2.884E+03  1.834E-29  1.403E-18
2.858E+03  1.904E-29  1.443E-18
2.831E+03  1.976E-29  1.484E-18
2.805E+03  2.051E-29  1.527E-18
2.780E+03  2.129E-29  1.570E-18
2.754E+03  2.210E-29  1.615E-18
2.729E+03  2.295E-29  1.661E-18
2.704E+03  2.382E-29  1.708E-18
2.679E+03  2.473E-29  1.757E-18
2.655E+03  2.567E-29  1.808E-18
2.630E+03  2.665E-29  1.859E-18
2.606E+03  2.767E-29  1.913E-18
2.582E+03  2.872E-29  1.967E-18
2.559E+03  2.982E-29  2.024E-18
2.535E+03  3.096E-29  2.082E-18
2.512E+03  3.214E-29  2.141E-18
2.489E+03  3.337E-29  2.203E-18
2.466E+03  3.464E-29  2.266E-18
2.443E+03  3.597E-29  2.331E-18
2.421E+03  3.735E-29  2.398E-18
2.399E+03  3.878E-29  2.467E-18
2.377E+03  4.026E-29  2.538E-18
2.355E+03  4.180E-29  2.611E-18
2.333E+03  4.340E-29  2.687E-18
2.312E+03  4.507E-29  2.764E-18
2.291E+03  4.679E-29  2.844E-18
2.270E+03  4.859E-29  2.925E-18
2.249E+03  5.045E-29  3.010E-18
2.228E+03  5.239E-29  3.097E-18
2.208E+03  5.440E-29  3.186E-18
2.188E+03  5.648E-29  3.278E-18
2.168E+03  5.865E-29  3.372E-18
2.148E+03  6.090E-29  3.470E-18
2.128E+03  6.324E-29  3.570E-18
2.109E+03  6.567E-29  3.673E-18
2.089E+03  6.819E-29  3.779E-18
2.070E+03  7.080E-29  3.888E-18
2.051E+03  7.352E-29  4.000E-18
2.032E+03  7.634E-29  4.116E-18
2.014E+03  7.928E-29  4.235E-18
1.995E+03  8.232E-29  4.357E-18
1.977E+03  8.548E-29  4.482E-18
1.959E+03  8.876E-29  4.612E-18
1.941E+03  9.216E-29  4.745E-18
1.923E+03  9.570E-29  4.882E-18
1.905E+03  9.937E-29  5.023E-18
1.888E+03  1.032E-28  5.168E-18
1.871E+03  1.071E-28  5.317E-18
1.854E+03  1.113E-28  5.470E-18
1.837E+03  1.155E-28  5.628E-18
1.820E+03  1.200E-28  5.790E-18
1.803E+03  1.246E-28  5.957E-18
1.786E+03  1.293E-28  6.129E-18
1.770E+03  1.343E-28  6.306E-18
1.754E+03  1.394E-28  6.488E-18
1.738E+03  1.448E-28  6.675E-18
1.722E+03  1.503E-28  6.867E-18
1.706E+03  1.561E-28  7.065E-18
1.690E+03  1.621E-28  7.268E-18
1.675E+03  1.683E-28  7.478E-18
1.660E+03  1.748E-28  7.693E-18
1.644E+03  1.814E-28  7.914E-18
1.629E+03  1.884E-28  8.142E-18
1.614E+03  1.956E-28  8.376E-18
1.600E+03  2.031E-28  8.617E-18
1.585E+03  2.108E-28  8.864E-18
1.570E+03  2.189E-28  9.119E-18
1.556E+03  2.273E-28  9.380E-18
1.542E+03  2.360E-28  9.649E-18
1.528E+03  2.450E-28  9.926E-18
1.514E+03  2.543E-28  1.021E-17
1.500E+03  2.640E-28  1.050E-17
1.486E+03  2.741E-28  1.080E-17
1.472E+03  2.845E-28  1.111E-17
1.459E+03  2.954E-28  1.143E-17
1.445E+03  3.067E-28  1.176E-17
1.432E+03  3.183E-28  1.209E-17
1.419E+03  3.305E-28  1.244E-17
1.406E+03  3.430E-28  1.279E-17
1.393E+03  3.561E-28  1.316E-17
1.380E+03  3.696E-28  1.353E-17
1.368E+03  3.837E-28  1.392E-17
1.355E+03  3.983E-28  1.432E-17
1.343E+03  4.134E-28  1.472E-17
1.330E+03  4.290E-28  1.514E-17
1.318E+03  4.453E-28  1.557E-17
1.306E+03  4.622E-28  1.601E-17
1.294E+03  4.797E-28  1.647E-17
1.282E+03  4.978E-28  1.693E-17
1.271E+03  5.166E-28  1.741E-17
1.259E+03  5.361E-28  1.790E-17
1.247E+03  5.564E-28  1.841E-17
1.236E+03  5.774E-28  1.893E-17
1.225E+03  5.991E-28  1.946E-17
1.213E+03  6.216E-28  2.001E-17
1.202E+03  6.450E-28  2.057E-17
1.191E+03  6.692E-28  2.115E-17
1.180E+03  6.944E-28  2.174E-17
1.169E+03  7.204E-28  2.235E-17
1.159E+03  7.474E-28  2.297E-17
1.148E+03  7.754E-28  2.361E-17
1.138E+03  8.043E-28  2.427E-17
1.127E+03  8.344E-28  2.495E-17
1.117E+03  8.655E-28  2.564E-17
1.107E+03  8.978E-28  2.635E-17
1.096E+03  9.312E-28  2.708E-17
1.086E+03  9.658E-28  2.783E-17
1.076E+03  1.002E-27  2.860E-17
1.067E+03  1.039E-27  2.939E-17
1.057E+03  1.077E-27  3.020E-17
1.047E+03  1.117E-27  3.103E-17
1.038E+03  1.158E-27  3.188E-17
1.028E+03  1.201E-27  3.275E-17
1.019E+03  1.245E-27  3.365E-17
1.009E+03  1.291E-27  3.457E-17
1.000E+03  1.339E-27  3.551E-17
9.908E+02  1.388E-27  3.648E-17
9.817E+02  1.439E-27  3.747E-17
9.727E+02  1.492E-27  3.849E-17
9.638E+02  1.546E-27  3.953E-17
9.550E+02  1.603E-27  4.060E-17
9.462E+02  1.661E-27  4.169E-17
9.376E+02  1.722E-27  4.282E-17
9.290E+02  1.784E-27  4.397E-17
9.204E+02  1.849E-27  4.515E-17
9.120E+02  1.916E-27  4.636E-17
9.036E+02  1.986E-27  4.760E-17
8.954E+02  2.057E-27  4.886E-17
8.872E+02  2.132E-27  5.016E-17
8.790E+02  2.208E-27  5.149E-17
8.710E+02  2.288E-27  5.285E-17
8.630E+02  2.370E-27  5.424E-17
8.551E+02  2.454E-27  5.567E-17
8.472E+02  2.542E-27  5.713E-17
8.395E+02  2.632E-27  5.862E-17
8.318E+02  2.726E-27  6.015E-17
8.241E+02  2.823E-27  6.171E-17
8.166E+02  2.923E-27  6.331E-17
8.091E+02  3.026E-27  6.494E-17
8.017E+02  3.132E-27  6.661E-17
7.943E+02  3.242E-27  6.832E-17
7.870E+02  3.356E-27  7.007E-17
7.798E+02  3.474E-27  7.186E-17
7.727E+02  3.595E-27  7.368E-17
7.656E+02  3.720E-27  7.556E-17
7.586E+02  3.850E-27  7.747E-17
7.516E+02  3.983E-27  7.942E-17
7.447E+02  4.122E-27  8.142E-17
7.379E+02  4.265E-27  8.348E-17
7.311E+02  4.413E-27  8.558E-17
7.244E+02  4.565E-27  8.773E-17
7.178E+02  4.723E-27  8.993E-17
7.112E+02  4.886E-27  9.217E-17
7.047E+02  5.054E-27  9.447E-17
6.982E+02  5.227E-27  9.682E-17
6.918E+02  5.407E-27  9.922E-17
6.855E+02  5.592E-27  1.017E-16
6.792E+02  5.783E-27  1.042E-16
6.730E+02  5.980E-27  1.067E-16
6.668E+02  6.182E-27  1.094E-16
6.607E+02  6.392E-27  1.120E-16
6.546E+02  6.609E-27  1.148E-16
6.486E+02  6.833E-27  1.176E-16
6.427E+02  7.065E-27  1.204E-16
6.368E+02  7.305E-27  1.234E-16
6.310E+02  7.552E-27  1.264E-16
6.252E+02  7.807E-27  1.295E-16
6.194E+02  8.070E-27  1.326E-16
6.138E+02  8.341E-27  1.358E-16
6.081E+02  8.620E-27  1.391E-16
6.026E+02  8.910E-27  1.424E-16
5.970E+02  9.208E-27  1.458E-16
5.916E+02  9.516E-27  1.493E-16
5.861E+02  9.833E-27  1.529E-16
5.808E+02  1.016E-26  1.565E-16
5.754E+02  1.050E-26  1.602E-16
5.702E+02  1.085E-26  1.640E-16
5.649E+02  1.120E-26  1.679E-16
5.598E+02  1.157E-26  1.719E-16
5.546E+02  1.196E-26  1.759E-16
5.495E+02  1.235E-26  1.800E-16
5.445E+02  1.276E-26  1.842E-16
5.395E+02  1.317E-26  1.885E-16
5.346E+02  1.360E-26  1.929E-16
5.297E+02  1.405E-26  1.974E-16
5.248E+02  1.450E-26  2.019E-16
5.200E+02  1.498E-26  2.066E-16
5.152E+02  1.546E-26  2.113E-16
5.105E+02  1.596E-26  2.161E-16
5.058E+02  1.648E-26  2.211E-16
5.012E+02  1.701E-26  2.261E-16
4.966E+02  1.755E-26  2.312E-16
4.920E+02  1.811E-26  2.364E-16
4.875E+02  1.869E-26  2.417E-16
4.831E+02  1.929E-26  2.471E-16
4.786E+02  1.990E-26  2.526E-16
4.742E+02  2.053E-26  2.582E-16
4.699E+02  2.117E-26  2.639E-16
4.656E+02  2.184E-26  2.697E-16
4.613E+02  2.252E-26  2.756E-16
4.571E+02  2.323E-26  2.816E-16
4.529E+02  2.395E-26  2.877E-16
4.487E+02  2.469E-26  2.939E-16
4.446E+02  2.546E-26  3.003E-16
4.406E+02  2.624E-26  3.067E-16
4.365E+02  2.705E-26  3.132E-16
4.325E+02  2.788E-26  3.198E-16
4.285E+02  2.873E-26  3.266E-16
4.246E+02  2.960E-26  3.334E-16
4.207E+02  3.050E-26  3.404E-16
4.169E+02  3.142E-26  3.474E-16
4.130E+02  3.236E-26  3.546E-16
4.093E+02  3.333E-26  3.618E-16
4.055E+02  3.433E-26  3.692E-16
4.018E+02  3.535E-26  3.767E-16
3.981E+02  3.639E-26  3.843E-16
3.945E+02  3.747E-26  3.920E-16
3.908E+02  3.857E-26  3.999E-16
3.873E+02  3.970E-26  4.078E-16
3.837E+02  4.086E-26  4.159E-16
3.802E+02  4.205E-26  4.240E-16
3.767E+02  4.326E-26  4.322E-16
3.733E+02  4.450E-26  4.406E-16
3.698E+02  4.577E-26  4.490E-16
3.664E+02  4.708E-26  4.576E-16
3.631E+02  4.841E-26  4.662E-16
3.597E+02  4.977E-26  4.749E-16
3.565E+02  5.116E-26  4.837E-16
3.532E+02  5.259E-26  4.927E-16
3.499E+02  5.405E-26  5.017E-16
3.467E+02  5.554E-26  5.108E-16
3.436E+02  5.706E-26  5.200E-16
3.404E+02  5.861E-26  5.293E-16
3.373E+02  6.020E-26  5.386E-16
3.342E+02  6.182E-26  5.480E-16
3.311E+02  6.348E-26  5.575E-16
3.281E+02  6.516E-26  5.671E-16
3.251E+02  6.688E-26  5.767E-16
3.221E+02  6.863E-26  5.864E-16
3.192E+02  7.042E-26  5.962E-16
3.162E+02  7.224E-26  6.060E-16
3.133E+02  7.409E-26  6.157E-16
3.105E+02  7.597E-26  6.257E-16
3.076E+02  7.790E-26  6.356E-16
3.048E+02  7.985E-26  6.456E-16
3.020E+02  8.184E-26  6.556E-16
2.992E+02  8.386E-26  6.656E-16
2.965E+02  8.591E-26  6.756E-16
2.938E+02  8.800E-26  6.857E-16
2.911E+02  9.012E-26  6.958E-16
2.884E+02  9.226E-26  7.058E-16
2.858E+02  9.445E-26  7.159E-16
2.831E+02  9.666E-26  7.260E-16
2.805E+02  9.890E-26  7.360E-16
2.780E+02  1.012E-25  7.460E-16
2.754E+02  1.035E-25  7.560E-16
2.729E+02  1.058E-25  7.659E-16
2.704E+02  1.082E-25  7.760E-16
2.679E+02  1.106E-25  7.860E-16
2.655E+02  1.130E-25  7.960E-16
2.630E+02  1.155E-25  8.059E-16
2.606E+02  1.180E-25  8.157E-16
2.582E+02  1.205E-25  8.255E-16
2.559E+02  1.230E-25  8.350E-16
2.535E+02  1.255E-25  8.442E-16
2.512E+02  1.280E-25  8.532E-16
2.489E+02  1.305E-25  8.615E-16
2.466E+02  1.328E-25  8.689E-16
2.443E+02  1.352E-25  8.761E-16
2.421E+02  1.375E-25  8.827E-16
2.399E+02  1.397E-25  8.890E-16
2.377E+02  1.419E-25  8.945E-16
2.355E+02  1.440E-25  8.997E-16
2.333E+02  1.462E-25  9.047E-16
2.312E+02  1.483E-25  9.094E-16
2.291E+02  1.504E-25  9.139E-16
2.270E+02  1.525E-25  9.180E-16
2.249E+02  1.545E-25  9.219E-16
2.228E+02  1.566E-25  9.255E-16
2.208E+02  1.586E-25  9.289E-16
2.188E+02  1.606E-25  9.319E-16
2.168E+02  1.625E-25  9.346E-16
2.148E+02  1.645E-25  9.370E-16
2.128E+02  1.664E-25  9.391E-16
2.109E+02  1.682E-25  9.408E-16
2.089E+02  1.700E-25  9.423E-16
2.070E+02  1.718E-25  9.433E-16
2.051E+02  1.735E-25  9.440E-16
2.032E+02  1.752E-25  9.444E-16
2.014E+02  1.768E-25  9.445E-16
1.995E+02  1.784E-25  9.442E-16
1.977E+02  1.799E-25  9.435E-16
1.959E+02  1.814E-25  9.425E-16
1.941E+02  1.828E-25  9.412E-16
1.923E+02  1.842E-25  9.395E-16
1.905E+02  1.855E-25  9.374E-16
1.888E+02  1.867E-25  9.350E-16
1.871E+02  1.879E-25  9.323E-16
1.854E+02  1.890E-25  9.292E-16
1.837E+02  1.900E-25  9.258E-16
1.820E+02  1.910E-25  9.221E-16
1.803E+02  1.919E-25  9.180E-16
1.786E+02  1.928E-25  9.136E-16
1.770E+02  1.936E-25  9.088E-16
1.754E+02  1.943E-25  9.038E-16
1.738E+02  1.949E-25  8.985E-16
1.722E+02  1.955E-25  8.929E-16
1.706E+02  1.960E-25  8.870E-16
1.690E+02  1.964E-25  8.808E-16
1.675E+02  1.968E-25  8.744E-16
1.660E+02  1.971E-25  8.678E-16
1.644E+02  1.974E-25  8.610E-16
1.629E+02  1.976E-25  8.539E-16
1.614E+02  1.977E-25  8.467E-16
1.600E+02  1.978E-25  8.394E-16
1.585E+02  1.979E-25  8.319E-16
1.570E+02  1.979E-25  8.244E-16
1.556E+02  1.979E-25  8.168E-16
1.542E+02  1.979E-25  8.092E-16
1.528E+02  1.978E-25  8.016E-16
1.514E+02  1.978E-25  7.941E-16
1.500E+02  1.978E-25  7.867E-16
1.486E+02  1.977E-25  7.793E-16
1.472E+02  1.977E-25  7.720E-16
1.459E+02  1.976E-25  7.647E-16
1.445E+02  1.975E-25  7.571E-16
1.432E+02  1.972E-25  7.490E-16
1.419E+02  1.966E-25  7.401E-16
1.406E+02  1.957E-25  7.300E-16
1.393E+02  1.944E-25  7.185E-16
1.380E+02  1.927E-25  7.056E-16
1.368E+02  1.906E-25  6.914E-16
1.355E+02  1.881E-25  6.762E-16
1.343E+02  1.854E-25  6.604E-16
1.330E+02  1.826E-25  6.444E-16
1.318E+02  1.797E-25  6.285E-16
1.306E+02  1.769E-25  6.128E-16
1.294E+02  1.741E-25  5.976E-16
1.282E+02  1.713E-25  5.826E-16
1.271E+02  1.685E-25  5.681E-16
1.259E+02  1.659E-25  5.538E-16
1.247E+02  1.632E-25  5.399E-16
1.236E+02  1.605E-25  5.263E-16
1.225E+02  1.579E-25  5.130E-16
1.213E+02  1.553E-25  4.999E-16
1.202E+02  1.527E-25  4.871E-16
1.191E+02  1.501E-25  4.744E-16
1.180E+02  1.476E-25  4.620E-16
1.169E+02  1.450E-25  4.497E-16
1.159E+02  1.424E-25  4.376E-16
1.148E+02  1.398E-25  4.256E-16
1.138E+02  1.372E-25  4.139E-16
1.127E+02  1.346E-25  4.023E-16
1.117E+02  1.320E-25  3.910E-16
1.107E+02  1.294E-25  3.799E-16
1.096E+02  1.268E-25  3.689E-16
1.086E+02  1.243E-25  3.582E-16
1.076E+02  1.217E-25  3.476E-16
1.067E+02  1.192E-25  3.372E-16
1.057E+02  1.167E-25  3.270E-16
1.047E+02  1.141E-25  3.170E-16
1.038E+02  1.116E-25  3.073E-16
1.028E+02  1.091E-25  2.976E-16
1.019E+02  1.067E-25  2.882E-16
1.009E+02  1.042E-25  2.789E-16
1.000E+02  1.017E-25  2.699E-16
9.908E+01  9.932E-26  2.610E-16
9.817E+01  9.691E-26  2.524E-16
9.727E+01  9.451E-26  2.439E-16
9.638E+01  9.216E-26  2.356E-16
9.550E+01  8.983E-26  2.276E-16
9.462E+01  8.753E-26  2.197E-16
9.376E+01  8.527E-26  2.121E-16
9.290E+01  8.304E-26  2.046E-16
9.204E+01  8.084E-26  1.974E-16
9.120E+01  7.867E-26  1.903E-16
9.036E+01  7.655E-26  1.835E-16
8.954E+01  7.446E-26  1.769E-16
8.872E+01  7.242E-26  1.704E-16
8.790E+01  7.042E-26  1.642E-16
8.710E+01  6.847E-26  1.582E-16
8.630E+01  6.656E-26  1.524E-16
8.551E+01  6.469E-26  1.467E-16
8.472E+01  6.286E-26  1.413E-16
8.395E+01  6.107E-26  1.360E-16
8.318E+01  5.933E-26  1.309E-16
8.241E+01  5.762E-26  1.260E-16
8.166E+01  5.597E-26  1.212E-16
8.091E+01  5.437E-26  1.167E-16
8.017E+01  5.281E-26  1.123E-16
7.943E+01  5.129E-26  1.081E-16
7.870E+01  4.981E-26  1.040E-16
7.798E+01  4.838E-26  1.001E-16
7.727E+01  4.699E-26  9.632E-17
7.656E+01  4.565E-26  9.272E-17
7.586E+01  4.436E-26  8.926E-17
7.516E+01  4.310E-26  8.594E-17
7.447E+01  4.189E-26  8.276E-17
7.379E+01  4.072E-26  7.970E-17
7.311E+01  3.959E-26  7.677E-17
7.244E+01  3.849E-26  7.397E-17
7.178E+01  3.744E-26  7.129E-17
7.112E+01  3.643E-26  6.872E-17
7.047E+01  3.546E-26  6.628E-17
6.982E+01  3.453E-26  6.395E-17
6.918E+01  3.364E-26  6.173E-17
6.855E+01  3.278E-26  5.960E-17
6.792E+01  3.195E-26  5.756E-17
6.730E+01  3.116E-26  5.562E-17
6.668E+01  3.040E-26  5.377E-17
6.607E+01  2.968E-26  5.202E-17
6.546E+01  2.899E-26  5.035E-17
6.486E+01  2.833E-26  4.875E-17
6.427E+01  2.770E-26  4.722E-17
6.368E+01  2.710E-26  4.577E-17
6.310E+01  2.652E-26  4.439E-17
6.252E+01  2.598E-26  4.308E-17
6.194E+01  2.546E-26  4.183E-17
6.138E+01  2.496E-26  4.064E-17
6.081E+01  2.449E-26  3.951E-17
6.026E+01  2.404E-26  3.843E-17
5.970E+01  2.361E-26  3.739E-17
5.916E+01  2.320E-26  3.641E-17
5.861E+01  2.282E-26  3.547E-17
5.808E+01  2.244E-26  3.457E-17
5.754E+01  2.209E-26  3.372E-17
5.702E+01  2.175E-26  3.290E-17
5.649E+01  2.144E-26  3.212E-17
5.598E+01  2.113E-26  3.138E-17
5.546E+01  2.085E-26  3.067E-17
5.495E+01  2.058E-26  2.999E-17
5.445E+01  2.032E-26  2.935E-17
5.395E+01  2.007E-26  2.873E-17
5.346E+01  1.984E-26  2.813E-17
5.297E+01  1.962E-26  2.756E-17
5.248E+01  1.941E-26  2.702E-17
5.200E+01  1.921E-26  2.649E-17
5.152E+01  1.901E-26  2.598E-17
5.105E+01  1.883E-26  2.549E-17
5.058E+01  1.865E-26  2.502E-17
5.012E+01  1.848E-26  2.457E-17
4.966E+01  1.832E-26  2.413E-17
