Dust emission from Draine & Li (2007): ApJ 657, 810-837
==========================================================
         2 = grain model
 4.000E-08 4.000E-01 7.500E-06 = a_01 (cm) , sigma_1 , b_C1/0.92
 2.000E-07 5.500E-01 2.500E-06 = a_02 (cm) , sigma_2 , b_C2/0.92
 2.000E+01 1.000E+06 2.000E+00 = Umin , Umax, beta (dN/dU propto U^{-beta})
 2.164E+02 = <U> 
     mmp83 = radfield
 9.565E-22 = power/H (erg s-1)
 band   nu*P_nu(band) j_nu(band)
 (um)   (erg s-1 H-1)(Jy cm2 sr-1 H-1)
1.270E+00  9.380E-25  3.160E-17 COBE-DIRBE
2.220E+00  1.250E-24  7.360E-17 COBE-DIRBE
3.530E+00  9.769E-24  9.148E-16 COBE-DIRBE
4.880E+00  1.265E-23  1.637E-15 COBE-DIRBE
1.229E+01  1.511E-22  4.926E-14 COBE-DIRBE
2.079E+01  3.197E-22  1.763E-13 COBE-DIRBE
5.599E+01  4.167E-22  6.189E-13 COBE-DIRBE
9.770E+01  1.469E-22  3.806E-13 COBE-DIRBE
1.479E+02  5.058E-23  1.984E-13 COBE-DIRBE
2.479E+02  8.600E-24  5.654E-14 COBE-DIRBE
1.200E+01  1.438E-22  4.578E-14 IRAS
2.500E+01  4.015E-22  2.662E-13 IRAS
6.000E+01  3.881E-22  6.177E-13 IRAS
1.000E+02  1.377E-22  3.652E-13 IRAS
3.550E+00  1.117E-23  1.052E-15 SST-IRAC
4.493E+00  8.571E-24  1.021E-15 SST-IRAC
5.731E+00  4.790E-23  7.281E-15 SST-IRAC
7.872E+00  1.396E-22  2.914E-14 SST-IRAC
2.368E+01  3.792E-22  2.382E-13 SST-MIPS
7.142E+01  2.522E-22  4.777E-13 SST-MIPS
1.559E+02  3.844E-23  1.590E-13 SST-MIPS
1.600E+01  1.984E-22  8.421E-14 SST-IRSPU
2.200E+01  3.689E-22  2.153E-13 SST-IRSPU
7.500E+01  2.188E-22  4.352E-13 Herschel-PACS
1.100E+02  9.667E-23  2.821E-13 Herschel-PACS
1.700E+02  2.935E-23  1.323E-13 Herschel-PACS
2.500E+02  6.919E-24  4.588E-14 Herschel-SPIRE
3.600E+02  1.478E-24  1.412E-14 Herschel-SPIRE
5.200E+02  3.060E-25  4.221E-15 Herschel-SPIRE
2.400E+00  1.519E-24  9.671E-17 Akari IRC NIR N2
3.200E+00  7.268E-24  6.169E-16 Akari IRC NIR N3
4.100E+00  8.411E-24  9.147E-16 Akari IRC NIR N4
7.000E+00  1.410E-22  2.619E-14 Akari IRC MIR-S S7
9.000E+00  1.339E-22  3.196E-14 Akari IRC MIR-S S9W
1.100E+01  1.354E-22  3.950E-14 Akari IRC MIR-S S11
1.500E+01  2.098E-22  8.347E-14 Akari IRC MIR-L L15
1.800E+01  2.829E-22  1.351E-13 Akari IRC MIR-L L18W
2.400E+01  3.711E-22  2.363E-13 Akari IRC MIR-L L24
6.500E+01  3.144E-22  5.420E-13 Akari FIS N60
8.000E+01  1.980E-22  4.202E-13 Akari FIS WIDE-S
1.400E+02  4.984E-23  1.851E-13 Akari FIS WIDE-L
1.600E+02  3.478E-23  1.476E-13 Akari FIS N160
 
 
 
 


lambda    nu*dP/dnu     j_nu
 (um)   (erg s-1 H-1)(Jy cm2 sr-1 H-1)
1.000E+04  1.082E-30  2.871E-19
9.908E+03  1.122E-30  2.949E-19
9.817E+03  1.163E-30  3.030E-19
9.727E+03  1.206E-30  3.112E-19
9.638E+03  1.251E-30  3.197E-19
9.550E+03  1.297E-30  3.285E-19
9.462E+03  1.344E-30  3.374E-19
9.376E+03  1.394E-30  3.466E-19
9.290E+03  1.445E-30  3.561E-19
9.204E+03  1.498E-30  3.658E-19
9.120E+03  1.553E-30  3.758E-19
9.036E+03  1.611E-30  3.860E-19
8.954E+03  1.670E-30  3.965E-19
8.872E+03  1.731E-30  4.073E-19
8.790E+03  1.794E-30  4.183E-19
8.710E+03  1.860E-30  4.297E-19
8.630E+03  1.928E-30  4.414E-19
8.551E+03  1.999E-30  4.534E-19
8.472E+03  2.072E-30  4.657E-19
8.395E+03  2.149E-30  4.784E-19
8.318E+03  2.228E-30  4.915E-19
8.241E+03  2.310E-30  5.049E-19
8.166E+03  2.395E-30  5.187E-19
8.091E+03  2.483E-30  5.329E-19
8.017E+03  2.574E-30  5.474E-19
7.943E+03  2.669E-30  5.624E-19
7.870E+03  2.768E-30  5.779E-19
7.798E+03  2.870E-30  5.937E-19
7.727E+03  2.976E-30  6.100E-19
7.656E+03  3.086E-30  6.268E-19
7.586E+03  3.201E-30  6.440E-19
7.516E+03  3.319E-30  6.617E-19
7.447E+03  3.442E-30  6.800E-19
7.379E+03  3.570E-30  6.987E-19
7.311E+03  3.702E-30  7.180E-19
7.244E+03  3.840E-30  7.378E-19
7.178E+03  3.982E-30  7.582E-19
7.112E+03  4.130E-30  7.792E-19
7.047E+03  4.284E-30  8.008E-19
6.982E+03  4.443E-30  8.230E-19
6.918E+03  4.609E-30  8.457E-19
6.855E+03  4.780E-30  8.691E-19
6.792E+03  4.958E-30  8.932E-19
6.730E+03  5.143E-30  9.180E-19
6.668E+03  5.334E-30  9.435E-19
6.607E+03  5.533E-30  9.697E-19
6.546E+03  5.740E-30  9.967E-19
6.486E+03  5.954E-30  1.024E-18
6.427E+03  6.177E-30  1.053E-18
6.368E+03  6.408E-30  1.082E-18
6.310E+03  6.647E-30  1.113E-18
6.252E+03  6.896E-30  1.144E-18
6.194E+03  7.155E-30  1.176E-18
6.138E+03  7.423E-30  1.209E-18
6.081E+03  7.702E-30  1.242E-18
6.026E+03  7.991E-30  1.277E-18
5.970E+03  8.291E-30  1.313E-18
5.916E+03  8.603E-30  1.350E-18
5.861E+03  8.927E-30  1.388E-18
5.808E+03  9.263E-30  1.427E-18
5.754E+03  9.612E-30  1.467E-18
5.702E+03  9.974E-30  1.508E-18
5.649E+03  1.035E-29  1.551E-18
5.598E+03  1.074E-29  1.595E-18
5.546E+03  1.115E-29  1.640E-18
5.495E+03  1.157E-29  1.686E-18
5.445E+03  1.201E-29  1.734E-18
5.395E+03  1.246E-29  1.783E-18
5.346E+03  1.293E-29  1.834E-18
5.297E+03  1.342E-29  1.886E-18
5.248E+03  1.393E-29  1.939E-18
5.200E+03  1.446E-29  1.994E-18
5.152E+03  1.501E-29  2.051E-18
5.105E+03  1.558E-29  2.109E-18
5.058E+03  1.617E-29  2.170E-18
5.012E+03  1.678E-29  2.231E-18
4.966E+03  1.742E-29  2.295E-18
4.920E+03  1.809E-29  2.360E-18
4.875E+03  1.877E-29  2.428E-18
4.831E+03  1.949E-29  2.497E-18
4.786E+03  2.023E-29  2.569E-18
4.742E+03  2.100E-29  2.642E-18
4.699E+03  2.181E-29  2.718E-18
4.656E+03  2.264E-29  2.796E-18
4.613E+03  2.350E-29  2.876E-18
4.571E+03  2.440E-29  2.959E-18
4.529E+03  2.534E-29  3.044E-18
4.487E+03  2.631E-29  3.132E-18
4.446E+03  2.732E-29  3.222E-18
4.406E+03  2.837E-29  3.315E-18
4.365E+03  2.946E-29  3.411E-18
4.325E+03  3.059E-29  3.509E-18
4.285E+03  3.176E-29  3.611E-18
4.246E+03  3.299E-29  3.715E-18
4.207E+03  3.426E-29  3.823E-18
4.169E+03  3.557E-29  3.934E-18
4.130E+03  3.695E-29  4.048E-18
4.093E+03  3.837E-29  4.166E-18
4.055E+03  3.985E-29  4.287E-18
4.018E+03  4.139E-29  4.411E-18
3.981E+03  4.299E-29  4.540E-18
3.945E+03  4.465E-29  4.672E-18
3.908E+03  4.638E-29  4.808E-18
3.873E+03  4.817E-29  4.948E-18
3.837E+03  5.003E-29  5.092E-18
3.802E+03  5.197E-29  5.241E-18
3.767E+03  5.399E-29  5.394E-18
3.733E+03  5.608E-29  5.552E-18
3.698E+03  5.826E-29  5.715E-18
3.664E+03  6.052E-29  5.883E-18
3.631E+03  6.287E-29  6.055E-18
3.597E+03  6.532E-29  6.233E-18
3.565E+03  6.787E-29  6.417E-18
3.532E+03  7.051E-29  6.606E-18
3.499E+03  7.326E-29  6.801E-18
3.467E+03  7.612E-29  7.001E-18
3.436E+03  7.910E-29  7.208E-18
3.404E+03  8.219E-29  7.421E-18
3.373E+03  8.540E-29  7.641E-18
3.342E+03  8.875E-29  7.867E-18
3.311E+03  9.223E-29  8.101E-18
3.281E+03  9.584E-29  8.341E-18
3.251E+03  9.960E-29  8.589E-18
3.221E+03  1.035E-28  8.845E-18
3.192E+03  1.076E-28  9.108E-18
3.162E+03  1.118E-28  9.379E-18
3.133E+03  1.162E-28  9.659E-18
3.105E+03  1.208E-28  9.947E-18
3.076E+03  1.256E-28  1.024E-17
3.048E+03  1.305E-28  1.055E-17
3.020E+03  1.357E-28  1.087E-17
2.992E+03  1.410E-28  1.119E-17
2.965E+03  1.466E-28  1.153E-17
2.938E+03  1.523E-28  1.187E-17
2.911E+03  1.584E-28  1.223E-17
2.884E+03  1.646E-28  1.259E-17
2.858E+03  1.711E-28  1.297E-17
2.831E+03  1.779E-28  1.336E-17
2.805E+03  1.849E-28  1.376E-17
2.780E+03  1.923E-28  1.418E-17
2.754E+03  1.999E-28  1.460E-17
2.729E+03  2.078E-28  1.504E-17
2.704E+03  2.161E-28  1.550E-17
2.679E+03  2.246E-28  1.596E-17
2.655E+03  2.336E-28  1.645E-17
2.630E+03  2.429E-28  1.694E-17
2.606E+03  2.525E-28  1.746E-17
2.582E+03  2.626E-28  1.799E-17
2.559E+03  2.731E-28  1.853E-17
2.535E+03  2.840E-28  1.910E-17
2.512E+03  2.953E-28  1.968E-17
2.489E+03  3.071E-28  2.028E-17
2.466E+03  3.194E-28  2.089E-17
2.443E+03  3.322E-28  2.153E-17
2.421E+03  3.455E-28  2.219E-17
2.399E+03  3.593E-28  2.286E-17
2.377E+03  3.737E-28  2.356E-17
2.355E+03  3.887E-28  2.428E-17
2.333E+03  4.043E-28  2.503E-17
2.312E+03  4.206E-28  2.579E-17
2.291E+03  4.375E-28  2.659E-17
2.270E+03  4.551E-28  2.740E-17
2.249E+03  4.734E-28  2.824E-17
2.228E+03  4.925E-28  2.911E-17
2.208E+03  5.123E-28  3.001E-17
2.188E+03  5.330E-28  3.093E-17
2.168E+03  5.545E-28  3.188E-17
2.148E+03  5.769E-28  3.287E-17
2.128E+03  6.002E-28  3.388E-17
2.109E+03  6.244E-28  3.493E-17
2.089E+03  6.497E-28  3.600E-17
2.070E+03  6.759E-28  3.712E-17
2.051E+03  7.033E-28  3.827E-17
2.032E+03  7.318E-28  3.945E-17
2.014E+03  7.614E-28  4.067E-17
1.995E+03  7.923E-28  4.193E-17
1.977E+03  8.244E-28  4.323E-17
1.959E+03  8.579E-28  4.457E-17
1.941E+03  8.927E-28  4.596E-17
1.923E+03  9.289E-28  4.738E-17
1.905E+03  9.666E-28  4.886E-17
1.888E+03  1.006E-27  5.038E-17
1.871E+03  1.047E-27  5.194E-17
1.854E+03  1.089E-27  5.356E-17
1.837E+03  1.134E-27  5.523E-17
1.820E+03  1.180E-27  5.695E-17
1.803E+03  1.228E-27  5.873E-17
1.786E+03  1.278E-27  6.056E-17
1.770E+03  1.330E-27  6.246E-17
1.754E+03  1.384E-27  6.441E-17
1.738E+03  1.441E-27  6.642E-17
1.722E+03  1.500E-27  6.850E-17
1.706E+03  1.561E-27  7.065E-17
1.690E+03  1.625E-27  7.286E-17
1.675E+03  1.691E-27  7.514E-17
1.660E+03  1.760E-27  7.750E-17
1.644E+03  1.832E-27  7.993E-17
1.629E+03  1.907E-27  8.244E-17
1.614E+03  1.985E-27  8.502E-17
1.600E+03  2.067E-27  8.769E-17
1.585E+03  2.151E-27  9.045E-17
1.570E+03  2.240E-27  9.329E-17
1.556E+03  2.331E-27  9.622E-17
1.542E+03  2.427E-27  9.925E-17
1.528E+03  2.526E-27  1.024E-16
1.514E+03  2.630E-27  1.056E-16
1.500E+03  2.738E-27  1.089E-16
1.486E+03  2.850E-27  1.124E-16
1.472E+03  2.968E-27  1.159E-16
1.459E+03  3.089E-27  1.196E-16
1.445E+03  3.216E-27  1.233E-16
1.432E+03  3.349E-27  1.272E-16
1.419E+03  3.486E-27  1.312E-16
1.406E+03  3.630E-27  1.354E-16
1.393E+03  3.779E-27  1.397E-16
1.380E+03  3.935E-27  1.441E-16
1.368E+03  4.097E-27  1.486E-16
1.355E+03  4.266E-27  1.533E-16
1.343E+03  4.441E-27  1.582E-16
1.330E+03  4.624E-27  1.632E-16
1.318E+03  4.815E-27  1.684E-16
1.306E+03  5.013E-27  1.737E-16
1.294E+03  5.220E-27  1.792E-16
1.282E+03  5.435E-27  1.849E-16
1.271E+03  5.659E-27  1.907E-16
1.259E+03  5.892E-27  1.968E-16
1.247E+03  6.135E-27  2.030E-16
1.236E+03  6.388E-27  2.094E-16
1.225E+03  6.651E-27  2.161E-16
1.213E+03  6.925E-27  2.229E-16
1.202E+03  7.211E-27  2.300E-16
1.191E+03  7.508E-27  2.372E-16
1.180E+03  7.818E-27  2.448E-16
1.169E+03  8.140E-27  2.525E-16
1.159E+03  8.476E-27  2.605E-16
1.148E+03  8.825E-27  2.688E-16
1.138E+03  9.189E-27  2.773E-16
1.127E+03  9.568E-27  2.861E-16
1.117E+03  9.963E-27  2.952E-16
1.107E+03  1.037E-26  3.045E-16
1.096E+03  1.080E-26  3.142E-16
1.086E+03  1.125E-26  3.241E-16
1.076E+03  1.171E-26  3.344E-16
1.067E+03  1.219E-26  3.450E-16
1.057E+03  1.270E-26  3.559E-16
1.047E+03  1.322E-26  3.671E-16
1.038E+03  1.376E-26  3.788E-16
1.028E+03  1.433E-26  3.907E-16
1.019E+03  1.492E-26  4.031E-16
1.009E+03  1.553E-26  4.159E-16
1.000E+03  1.617E-26  4.290E-16
9.908E+02  1.684E-26  4.426E-16
9.817E+02  1.753E-26  4.566E-16
9.727E+02  1.826E-26  4.711E-16
9.638E+02  1.901E-26  4.860E-16
9.550E+02  1.979E-26  5.014E-16
9.462E+02  2.061E-26  5.172E-16
9.376E+02  2.145E-26  5.336E-16
9.290E+02  2.234E-26  5.504E-16
9.204E+02  2.326E-26  5.678E-16
9.120E+02  2.421E-26  5.858E-16
9.036E+02  2.521E-26  6.043E-16
8.954E+02  2.625E-26  6.234E-16
8.872E+02  2.732E-26  6.430E-16
8.790E+02  2.845E-26  6.633E-16
8.710E+02  2.961E-26  6.842E-16
8.630E+02  3.083E-26  7.057E-16
8.551E+02  3.209E-26  7.279E-16
8.472E+02  3.341E-26  7.508E-16
8.395E+02  3.478E-26  7.744E-16
8.318E+02  3.620E-26  7.987E-16
8.241E+02  3.768E-26  8.237E-16
8.166E+02  3.922E-26  8.495E-16
8.091E+02  4.082E-26  8.762E-16
8.017E+02  4.249E-26  9.036E-16
7.943E+02  4.423E-26  9.319E-16
7.870E+02  4.603E-26  9.610E-16
7.798E+02  4.791E-26  9.911E-16
7.727E+02  4.986E-26  1.022E-15
7.656E+02  5.190E-26  1.054E-15
7.586E+02  5.401E-26  1.087E-15
7.516E+02  5.621E-26  1.121E-15
7.447E+02  5.851E-26  1.156E-15
7.379E+02  6.089E-26  1.192E-15
7.311E+02  6.338E-26  1.229E-15
7.244E+02  6.596E-26  1.268E-15
7.178E+02  6.866E-26  1.307E-15
7.112E+02  7.146E-26  1.348E-15
7.047E+02  7.438E-26  1.390E-15
6.982E+02  7.741E-26  1.434E-15
6.918E+02  8.057E-26  1.479E-15
6.855E+02  8.386E-26  1.525E-15
6.792E+02  8.728E-26  1.573E-15
6.730E+02  9.084E-26  1.622E-15
6.668E+02  9.454E-26  1.672E-15
6.607E+02  9.839E-26  1.724E-15
6.546E+02  1.024E-25  1.778E-15
6.486E+02  1.066E-25  1.834E-15
6.427E+02  1.110E-25  1.892E-15
6.368E+02  1.155E-25  1.951E-15
6.310E+02  1.202E-25  2.012E-15
6.252E+02  1.251E-25  2.075E-15
6.194E+02  1.303E-25  2.140E-15
6.138E+02  1.356E-25  2.208E-15
6.081E+02  1.412E-25  2.277E-15
6.026E+02  1.469E-25  2.349E-15
5.970E+02  1.530E-25  2.422E-15
5.916E+02  1.592E-25  2.498E-15
5.861E+02  1.657E-25  2.577E-15
5.808E+02  1.725E-25  2.658E-15
5.754E+02  1.796E-25  2.742E-15
5.702E+02  1.870E-25  2.828E-15
5.649E+02  1.946E-25  2.917E-15
5.598E+02  2.026E-25  3.009E-15
5.546E+02  2.109E-25  3.103E-15
5.495E+02  2.196E-25  3.201E-15
5.445E+02  2.286E-25  3.302E-15
5.395E+02  2.380E-25  3.406E-15
5.346E+02  2.478E-25  3.513E-15
5.297E+02  2.579E-25  3.624E-15
5.248E+02  2.685E-25  3.738E-15
5.200E+02  2.796E-25  3.856E-15
5.152E+02  2.911E-25  3.978E-15
5.105E+02  3.030E-25  4.103E-15
5.058E+02  3.155E-25  4.233E-15
5.012E+02  3.284E-25  4.366E-15
4.966E+02  3.419E-25  4.504E-15
4.920E+02  3.560E-25  4.646E-15
4.875E+02  3.706E-25  4.792E-15
4.831E+02  3.858E-25  4.944E-15
4.786E+02  4.017E-25  5.099E-15
4.742E+02  4.182E-25  5.260E-15
4.699E+02  4.353E-25  5.426E-15
4.656E+02  4.532E-25  5.597E-15
4.613E+02  4.718E-25  5.774E-15
4.571E+02  4.912E-25  5.956E-15
4.529E+02  5.114E-25  6.144E-15
4.487E+02  5.324E-25  6.337E-15
4.446E+02  5.542E-25  6.537E-15
4.406E+02  5.770E-25  6.743E-15
4.365E+02  6.006E-25  6.955E-15
4.325E+02  6.253E-25  7.174E-15
4.285E+02  6.509E-25  7.400E-15
4.246E+02  6.776E-25  7.633E-15
4.207E+02  7.054E-25  7.873E-15
4.169E+02  7.344E-25  8.121E-15
4.130E+02  7.645E-25  8.376E-15
4.093E+02  7.958E-25  8.640E-15
4.055E+02  8.285E-25  8.911E-15
4.018E+02  8.624E-25  9.191E-15
3.981E+02  8.978E-25  9.480E-15
3.945E+02  9.346E-25  9.779E-15
3.908E+02  9.729E-25  1.009E-14
3.873E+02  1.013E-24  1.040E-14
3.837E+02  1.054E-24  1.073E-14
3.802E+02  1.097E-24  1.107E-14
3.767E+02  1.142E-24  1.141E-14
3.733E+02  1.189E-24  1.177E-14
3.698E+02  1.238E-24  1.214E-14
3.664E+02  1.288E-24  1.252E-14
3.631E+02  1.341E-24  1.292E-14
3.597E+02  1.396E-24  1.332E-14
3.565E+02  1.453E-24  1.374E-14
3.532E+02  1.512E-24  1.417E-14
3.499E+02  1.574E-24  1.461E-14
3.467E+02  1.638E-24  1.507E-14
3.436E+02  1.705E-24  1.554E-14
3.404E+02  1.774E-24  1.602E-14
3.373E+02  1.847E-24  1.652E-14
3.342E+02  1.922E-24  1.704E-14
3.311E+02  2.000E-24  1.757E-14
3.281E+02  2.081E-24  1.811E-14
3.251E+02  2.166E-24  1.868E-14
3.221E+02  2.254E-24  1.926E-14
3.192E+02  2.345E-24  1.985E-14
3.162E+02  2.440E-24  2.047E-14
3.133E+02  2.539E-24  2.110E-14
3.105E+02  2.642E-24  2.176E-14
3.076E+02  2.749E-24  2.243E-14
3.048E+02  2.860E-24  2.312E-14
3.020E+02  2.975E-24  2.383E-14
2.992E+02  3.095E-24  2.457E-14
2.965E+02  3.220E-24  2.532E-14
2.938E+02  3.349E-24  2.610E-14
2.911E+02  3.484E-24  2.690E-14
2.884E+02  3.624E-24  2.772E-14
2.858E+02  3.770E-24  2.857E-14
2.831E+02  3.921E-24  2.945E-14
2.805E+02  4.078E-24  3.035E-14
2.780E+02  4.241E-24  3.127E-14
2.754E+02  4.410E-24  3.222E-14
2.729E+02  4.587E-24  3.320E-14
2.704E+02  4.770E-24  3.422E-14
2.679E+02  4.961E-24  3.526E-14
2.655E+02  5.159E-24  3.633E-14
2.630E+02  5.365E-24  3.743E-14
2.606E+02  5.579E-24  3.857E-14
2.582E+02  5.801E-24  3.974E-14
2.559E+02  6.031E-24  4.093E-14
2.535E+02  6.269E-24  4.216E-14
2.512E+02  6.515E-24  4.341E-14
2.489E+02  6.766E-24  4.467E-14
2.466E+02  7.023E-24  4.594E-14
2.443E+02  7.288E-24  4.724E-14
2.421E+02  7.561E-24  4.856E-14
2.399E+02  7.842E-24  4.990E-14
2.377E+02  8.130E-24  5.126E-14
2.355E+02  8.427E-24  5.264E-14
2.333E+02  8.734E-24  5.406E-14
2.312E+02  9.051E-24  5.551E-14
2.291E+02  9.379E-24  5.699E-14
2.270E+02  9.718E-24  5.851E-14
2.249E+02  1.007E-23  6.006E-14
2.228E+02  1.043E-23  6.166E-14
2.208E+02  1.080E-23  6.328E-14
2.188E+02  1.119E-23  6.495E-14
2.168E+02  1.159E-23  6.665E-14
2.148E+02  1.200E-23  6.838E-14
2.128E+02  1.243E-23  7.016E-14
2.109E+02  1.287E-23  7.198E-14
2.089E+02  1.332E-23  7.383E-14
2.070E+02  1.379E-23  7.573E-14
2.051E+02  1.427E-23  7.766E-14
2.032E+02  1.477E-23  7.964E-14
2.014E+02  1.529E-23  8.166E-14
1.995E+02  1.582E-23  8.372E-14
1.977E+02  1.637E-23  8.582E-14
1.959E+02  1.693E-23  8.797E-14
1.941E+02  1.751E-23  9.016E-14
1.923E+02  1.811E-23  9.239E-14
1.905E+02  1.873E-23  9.468E-14
1.888E+02  1.937E-23  9.701E-14
1.871E+02  2.003E-23  9.939E-14
1.854E+02  2.071E-23  1.018E-13
1.837E+02  2.141E-23  1.043E-13
1.820E+02  2.213E-23  1.068E-13
1.803E+02  2.287E-23  1.094E-13
1.786E+02  2.364E-23  1.120E-13
1.770E+02  2.443E-23  1.147E-13
1.754E+02  2.525E-23  1.174E-13
1.738E+02  2.609E-23  1.202E-13
1.722E+02  2.695E-23  1.231E-13
1.706E+02  2.784E-23  1.260E-13
1.690E+02  2.876E-23  1.290E-13
1.675E+02  2.971E-23  1.320E-13
1.660E+02  3.069E-23  1.351E-13
1.644E+02  3.170E-23  1.383E-13
1.629E+02  3.275E-23  1.415E-13
1.614E+02  3.382E-23  1.448E-13
1.600E+02  3.494E-23  1.482E-13
1.585E+02  3.608E-23  1.517E-13
1.570E+02  3.727E-23  1.553E-13
1.556E+02  3.850E-23  1.589E-13
1.542E+02  3.977E-23  1.626E-13
1.528E+02  4.108E-23  1.664E-13
1.514E+02  4.243E-23  1.704E-13
1.500E+02  4.383E-23  1.744E-13
1.486E+02  4.528E-23  1.785E-13
1.472E+02  4.677E-23  1.827E-13
1.459E+02  4.830E-23  1.869E-13
1.445E+02  4.987E-23  1.912E-13
1.432E+02  5.146E-23  1.955E-13
1.419E+02  5.305E-23  1.997E-13
1.406E+02  5.464E-23  2.038E-13
1.393E+02  5.621E-23  2.077E-13
1.380E+02  5.774E-23  2.114E-13
1.368E+02  5.923E-23  2.149E-13
1.355E+02  6.071E-23  2.182E-13
1.343E+02  6.217E-23  2.214E-13
1.330E+02  6.363E-23  2.246E-13
1.318E+02  6.512E-23  2.277E-13
1.306E+02  6.664E-23  2.309E-13
1.294E+02  6.820E-23  2.341E-13
1.282E+02  6.980E-23  2.374E-13
1.271E+02  7.145E-23  2.408E-13
1.259E+02  7.315E-23  2.443E-13
1.247E+02  7.489E-23  2.478E-13
1.236E+02  7.669E-23  2.514E-13
1.225E+02  7.854E-23  2.551E-13
1.213E+02  8.044E-23  2.589E-13
1.202E+02  8.239E-23  2.627E-13
1.191E+02  8.439E-23  2.666E-13
1.180E+02  8.643E-23  2.706E-13
1.169E+02  8.852E-23  2.746E-13
1.159E+02  9.066E-23  2.787E-13
1.148E+02  9.285E-23  2.828E-13
1.138E+02  9.509E-23  2.869E-13
1.127E+02  9.737E-23  2.911E-13
1.117E+02  9.972E-23  2.954E-13
1.107E+02  1.021E-22  2.997E-13
1.096E+02  1.046E-22  3.041E-13
1.086E+02  1.070E-22  3.085E-13
1.076E+02  1.096E-22  3.129E-13
1.067E+02  1.122E-22  3.174E-13
1.057E+02  1.148E-22  3.219E-13
1.047E+02  1.175E-22  3.264E-13
1.038E+02  1.203E-22  3.310E-13
1.028E+02  1.231E-22  3.355E-13
1.019E+02  1.259E-22  3.401E-13
1.009E+02  1.288E-22  3.447E-13
1.000E+02  1.317E-22  3.493E-13
9.908E+01  1.347E-22  3.539E-13
9.817E+01  1.377E-22  3.585E-13
9.727E+01  1.407E-22  3.631E-13
9.638E+01  1.438E-22  3.677E-13
9.550E+01  1.470E-22  3.723E-13
9.462E+01  1.502E-22  3.769E-13
9.376E+01  1.534E-22  3.815E-13
9.290E+01  1.567E-22  3.861E-13
9.204E+01  1.600E-22  3.907E-13
9.120E+01  1.634E-22  3.953E-13
9.036E+01  1.668E-22  3.998E-13
8.954E+01  1.702E-22  4.043E-13
8.872E+01  1.737E-22  4.089E-13
8.790E+01  1.773E-22  4.134E-13
8.710E+01  1.809E-22  4.179E-13
8.630E+01  1.845E-22  4.224E-13
8.551E+01  1.882E-22  4.269E-13
8.472E+01  1.919E-22  4.313E-13
8.395E+01  1.957E-22  4.357E-13
8.318E+01  1.995E-22  4.401E-13
8.241E+01  2.033E-22  4.445E-13
8.166E+01  2.072E-22  4.489E-13
8.091E+01  2.112E-22  4.532E-13
8.017E+01  2.151E-22  4.575E-13
7.943E+01  2.192E-22  4.618E-13
7.870E+01  2.232E-22  4.660E-13
7.798E+01  2.273E-22  4.701E-13
7.727E+01  2.314E-22  4.743E-13
7.656E+01  2.356E-22  4.784E-13
7.586E+01  2.398E-22  4.824E-13
7.516E+01  2.440E-22  4.865E-13
7.447E+01  2.483E-22  4.904E-13
7.379E+01  2.525E-22  4.943E-13
7.311E+01  2.569E-22  4.982E-13
7.244E+01  2.612E-22  5.019E-13
7.178E+01  2.656E-22  5.057E-13
7.112E+01  2.700E-22  5.094E-13
7.047E+01  2.745E-22  5.130E-13
6.982E+01  2.790E-22  5.167E-13
6.918E+01  2.835E-22  5.203E-13
6.855E+01  2.881E-22  5.239E-13
6.792E+01  2.927E-22  5.273E-13
6.730E+01  2.973E-22  5.307E-13
6.668E+01  3.020E-22  5.341E-13
6.607E+01  3.067E-22  5.375E-13
6.546E+01  3.114E-22  5.408E-13
6.486E+01  3.162E-22  5.440E-13
