Dust emission from Draine & Li (2007): ApJ 657, 810-837
================================================================
        10 = grain model
 4.000E-08 4.000E-01 5.000E-06 = a_01 (cm) , sigma_1 , b_C1/0.92
 2.500E-07 4.000E-01 5.000E-06 = a_02 (cm) , sigma_2 , b_C2/0.92
 2.000E+01 2.000E+01 1.000E+00 = Umin , Umax, beta (dN/dU propto U^{-beta})
 2.000E+01 = <U> 
     mmp83 = radfield
 2.090E-23 = power/H (erg s-1)
 band   nu*P_nu(band) j_nu(band)
 (um)   (erg s-1 H-1)(Jy cm2 sr-1 H-1)
1.270E+00  5.815E-26  1.959E-18 COBE-DIRBE
2.220E+00  7.800E-26  4.593E-18 COBE-DIRBE
3.530E+00  4.105E-25  3.844E-17 COBE-DIRBE
4.880E+00  1.976E-25  2.558E-17 COBE-DIRBE
1.229E+01  1.957E-24  6.380E-16 COBE-DIRBE
2.079E+01  2.305E-24  1.271E-15 COBE-DIRBE
5.599E+01  1.014E-23  1.506E-14 COBE-DIRBE
9.770E+01  1.201E-23  3.112E-14 COBE-DIRBE
1.479E+02  6.488E-24  2.545E-14 COBE-DIRBE
2.479E+02  1.504E-24  9.885E-15 COBE-DIRBE
1.200E+01  1.983E-24  6.312E-16 IRAS
2.500E+01  2.379E-24  1.578E-15 IRAS
6.000E+01  1.075E-23  1.711E-14 IRAS
1.000E+02  1.179E-23  3.127E-14 IRAS
3.550E+00  4.743E-25  4.466E-17 SST-IRAC
4.493E+00  1.447E-25  1.725E-17 SST-IRAC
5.731E+00  1.074E-24  1.633E-16 SST-IRAC
7.872E+00  2.598E-24  5.424E-16 SST-IRAC
2.368E+01  2.184E-24  1.372E-15 SST-MIPS
7.142E+01  1.177E-23  2.231E-14 SST-MIPS
1.559E+02  5.325E-24  2.202E-14 SST-MIPS
1.600E+01  1.862E-24  7.902E-16 SST-IRSPU
2.200E+01  2.242E-24  1.308E-15 SST-IRSPU











lambda    nu*dP/dnu     j_nu
 (um)   (erg s-1 H-1)(Jy cm2 sr-1 H-1)
1.000E+04  3.048E-31  8.086E-20
9.908E+03  3.160E-31  8.304E-20
9.817E+03  3.275E-31  8.528E-20
9.727E+03  3.394E-31  8.758E-20
9.638E+03  3.518E-31  8.994E-20
9.550E+03  3.646E-31  9.237E-20
9.462E+03  3.779E-31  9.486E-20
9.376E+03  3.917E-31  9.742E-20
9.290E+03  4.060E-31  1.000E-19
9.204E+03  4.208E-31  1.027E-19
9.120E+03  4.362E-31  1.055E-19
9.036E+03  4.521E-31  1.084E-19
8.954E+03  4.685E-31  1.113E-19
8.872E+03  4.855E-31  1.143E-19
8.790E+03  5.031E-31  1.173E-19
8.710E+03  5.214E-31  1.205E-19
8.630E+03  5.403E-31  1.237E-19
8.551E+03  5.600E-31  1.270E-19
8.472E+03  5.803E-31  1.304E-19
8.395E+03  6.015E-31  1.339E-19
8.318E+03  6.234E-31  1.375E-19
8.241E+03  6.461E-31  1.412E-19
8.166E+03  6.696E-31  1.450E-19
8.091E+03  6.941E-31  1.490E-19
8.017E+03  7.194E-31  1.530E-19
7.943E+03  7.457E-31  1.571E-19
7.870E+03  7.730E-31  1.614E-19
7.798E+03  8.012E-31  1.657E-19
7.727E+03  8.306E-31  1.702E-19
7.656E+03  8.610E-31  1.748E-19
7.586E+03  8.925E-31  1.796E-19
7.516E+03  9.252E-31  1.845E-19
7.447E+03  9.592E-31  1.895E-19
7.379E+03  9.944E-31  1.946E-19
7.311E+03  1.031E-30  1.999E-19
7.244E+03  1.069E-30  2.054E-19
7.178E+03  1.108E-30  2.110E-19
7.112E+03  1.149E-30  2.167E-19
7.047E+03  1.191E-30  2.227E-19
6.982E+03  1.235E-30  2.287E-19
6.918E+03  1.280E-30  2.350E-19
6.855E+03  1.328E-30  2.414E-19
6.792E+03  1.376E-30  2.480E-19
6.730E+03  1.427E-30  2.548E-19
6.668E+03  1.480E-30  2.617E-19
6.607E+03  1.534E-30  2.689E-19
6.546E+03  1.591E-30  2.763E-19
6.486E+03  1.650E-30  2.839E-19
6.427E+03  1.711E-30  2.917E-19
6.368E+03  1.774E-30  2.997E-19
6.310E+03  1.840E-30  3.079E-19
6.252E+03  1.908E-30  3.164E-19
6.194E+03  1.979E-30  3.251E-19
6.138E+03  2.052E-30  3.341E-19
6.081E+03  2.128E-30  3.433E-19
6.026E+03  2.207E-30  3.528E-19
5.970E+03  2.289E-30  3.626E-19
5.916E+03  2.375E-30  3.726E-19
5.861E+03  2.463E-30  3.829E-19
5.808E+03  2.555E-30  3.935E-19
5.754E+03  2.650E-30  4.045E-19
5.702E+03  2.749E-30  4.157E-19
5.649E+03  2.851E-30  4.272E-19
5.598E+03  2.957E-30  4.391E-19
5.546E+03  3.068E-30  4.513E-19
5.495E+03  3.182E-30  4.639E-19
5.445E+03  3.301E-30  4.768E-19
5.395E+03  3.425E-30  4.901E-19
5.346E+03  3.553E-30  5.038E-19
5.297E+03  3.686E-30  5.179E-19
5.248E+03  3.824E-30  5.324E-19
5.200E+03  3.968E-30  5.473E-19
5.152E+03  4.117E-30  5.626E-19
5.105E+03  4.271E-30  5.784E-19
5.058E+03  4.431E-30  5.946E-19
5.012E+03  4.598E-30  6.113E-19
4.966E+03  4.771E-30  6.284E-19
4.920E+03  4.950E-30  6.460E-19
4.875E+03  5.136E-30  6.642E-19
4.831E+03  5.329E-30  6.829E-19
4.786E+03  5.530E-30  7.021E-19
4.742E+03  5.738E-30  7.218E-19
4.699E+03  5.955E-30  7.422E-19
4.656E+03  6.179E-30  7.631E-19
4.613E+03  6.412E-30  7.847E-19
4.571E+03  6.655E-30  8.069E-19
4.529E+03  6.906E-30  8.297E-19
4.487E+03  7.168E-30  8.532E-19
4.446E+03  7.439E-30  8.774E-19
4.406E+03  7.721E-30  9.022E-19
4.365E+03  8.013E-30  9.278E-19
4.325E+03  8.317E-30  9.542E-19
4.285E+03  8.633E-30  9.813E-19
4.246E+03  8.960E-30  1.009E-18
4.207E+03  9.301E-30  1.038E-18
4.169E+03  9.654E-30  1.068E-18
4.130E+03  1.002E-29  1.098E-18
4.093E+03  1.040E-29  1.129E-18
4.055E+03  1.080E-29  1.162E-18
4.018E+03  1.121E-29  1.195E-18
3.981E+03  1.164E-29  1.229E-18
3.945E+03  1.208E-29  1.264E-18
3.908E+03  1.254E-29  1.300E-18
3.873E+03  1.302E-29  1.337E-18
3.837E+03  1.352E-29  1.376E-18
3.802E+03  1.403E-29  1.415E-18
3.767E+03  1.457E-29  1.456E-18
3.733E+03  1.513E-29  1.498E-18
3.698E+03  1.570E-29  1.541E-18
3.664E+03  1.631E-29  1.585E-18
3.631E+03  1.693E-29  1.631E-18
3.597E+03  1.758E-29  1.678E-18
3.565E+03  1.826E-29  1.726E-18
3.532E+03  1.896E-29  1.776E-18
3.499E+03  1.969E-29  1.827E-18
3.467E+03  2.044E-29  1.880E-18
3.436E+03  2.123E-29  1.935E-18
3.404E+03  2.205E-29  1.991E-18
3.373E+03  2.290E-29  2.049E-18
3.342E+03  2.378E-29  2.108E-18
3.311E+03  2.470E-29  2.169E-18
3.281E+03  2.565E-29  2.233E-18
3.251E+03  2.664E-29  2.298E-18
3.221E+03  2.767E-29  2.365E-18
3.192E+03  2.875E-29  2.434E-18
3.162E+03  2.986E-29  2.505E-18
3.133E+03  3.102E-29  2.578E-18
3.105E+03  3.222E-29  2.653E-18
3.076E+03  3.347E-29  2.731E-18
3.048E+03  3.477E-29  2.811E-18
3.020E+03  3.612E-29  2.893E-18
2.992E+03  3.752E-29  2.978E-18
2.965E+03  3.897E-29  3.065E-18
2.938E+03  4.049E-29  3.155E-18
2.911E+03  4.206E-29  3.247E-18
2.884E+03  4.369E-29  3.342E-18
2.858E+03  4.539E-29  3.440E-18
2.831E+03  4.715E-29  3.541E-18
2.805E+03  4.899E-29  3.646E-18
2.780E+03  5.090E-29  3.753E-18
2.754E+03  5.288E-29  3.863E-18
2.729E+03  5.494E-29  3.977E-18
2.704E+03  5.709E-29  4.095E-18
2.679E+03  5.932E-29  4.215E-18
2.655E+03  6.163E-29  4.340E-18
2.630E+03  6.404E-29  4.468E-18
2.606E+03  6.655E-29  4.601E-18
2.582E+03  6.916E-29  4.737E-18
2.559E+03  7.187E-29  4.877E-18
2.535E+03  7.468E-29  5.022E-18
2.512E+03  7.761E-29  5.171E-18
2.489E+03  8.066E-29  5.325E-18
2.466E+03  8.383E-29  5.483E-18
2.443E+03  8.712E-29  5.647E-18
2.421E+03  9.055E-29  5.815E-18
2.399E+03  9.411E-29  5.988E-18
2.377E+03  9.781E-29  6.167E-18
2.355E+03  1.017E-28  6.351E-18
2.333E+03  1.057E-28  6.541E-18
2.312E+03  1.098E-28  6.736E-18
2.291E+03  1.142E-28  6.938E-18
2.270E+03  1.187E-28  7.146E-18
2.249E+03  1.234E-28  7.360E-18
2.228E+03  1.282E-28  7.580E-18
2.208E+03  1.333E-28  7.808E-18
2.188E+03  1.386E-28  8.042E-18
2.168E+03  1.441E-28  8.284E-18
2.148E+03  1.498E-28  8.533E-18
2.128E+03  1.557E-28  8.789E-18
2.109E+03  1.619E-28  9.054E-18
2.089E+03  1.683E-28  9.327E-18
2.070E+03  1.750E-28  9.607E-18
2.051E+03  1.819E-28  9.897E-18
2.032E+03  1.891E-28  1.020E-17
2.014E+03  1.966E-28  1.050E-17
1.995E+03  2.044E-28  1.082E-17
1.977E+03  2.126E-28  1.115E-17
1.959E+03  2.210E-28  1.148E-17
1.941E+03  2.298E-28  1.183E-17
1.923E+03  2.389E-28  1.219E-17
1.905E+03  2.484E-28  1.256E-17
1.888E+03  2.583E-28  1.294E-17
1.871E+03  2.686E-28  1.333E-17
1.854E+03  2.793E-28  1.373E-17
1.837E+03  2.904E-28  1.415E-17
1.820E+03  3.020E-28  1.458E-17
1.803E+03  3.140E-28  1.502E-17
1.786E+03  3.265E-28  1.547E-17
1.770E+03  3.396E-28  1.594E-17
1.754E+03  3.531E-28  1.643E-17
1.738E+03  3.672E-28  1.693E-17
1.722E+03  3.819E-28  1.744E-17
1.706E+03  3.971E-28  1.797E-17
1.690E+03  4.130E-28  1.852E-17
1.675E+03  4.295E-28  1.908E-17
1.660E+03  4.467E-28  1.966E-17
1.644E+03  4.645E-28  2.026E-17
1.629E+03  4.831E-28  2.088E-17
1.614E+03  5.024E-28  2.152E-17
1.600E+03  5.225E-28  2.217E-17
1.585E+03  5.434E-28  2.285E-17
1.570E+03  5.652E-28  2.354E-17
1.556E+03  5.878E-28  2.426E-17
1.542E+03  6.113E-28  2.500E-17
1.528E+03  6.358E-28  2.576E-17
1.514E+03  6.613E-28  2.655E-17
1.500E+03  6.878E-28  2.736E-17
1.486E+03  7.153E-28  2.819E-17
1.472E+03  7.440E-28  2.906E-17
1.459E+03  7.738E-28  2.994E-17
1.445E+03  8.049E-28  3.086E-17
1.432E+03  8.372E-28  3.180E-17
1.419E+03  8.708E-28  3.278E-17
1.406E+03  9.057E-28  3.378E-17
1.393E+03  9.420E-28  3.481E-17
1.380E+03  9.799E-28  3.588E-17
1.368E+03  1.019E-27  3.698E-17
1.355E+03  1.060E-27  3.811E-17
1.343E+03  1.103E-27  3.927E-17
1.330E+03  1.147E-27  4.048E-17
1.318E+03  1.193E-27  4.172E-17
1.306E+03  1.241E-27  4.299E-17
1.294E+03  1.291E-27  4.431E-17
1.282E+03  1.343E-27  4.567E-17
1.271E+03  1.396E-27  4.706E-17
1.259E+03  1.452E-27  4.850E-17
1.247E+03  1.511E-27  4.999E-17
1.236E+03  1.571E-27  5.152E-17
1.225E+03  1.634E-27  5.309E-17
1.213E+03  1.700E-27  5.472E-17
1.202E+03  1.768E-27  5.639E-17
1.191E+03  1.839E-27  5.811E-17
1.180E+03  1.913E-27  5.989E-17
1.169E+03  1.990E-27  6.172E-17
1.159E+03  2.069E-27  6.361E-17
1.148E+03  2.152E-27  6.555E-17
1.138E+03  2.239E-27  6.755E-17
1.127E+03  2.328E-27  6.962E-17
1.117E+03  2.422E-27  7.174E-17
1.107E+03  2.519E-27  7.393E-17
1.096E+03  2.620E-27  7.619E-17
1.086E+03  2.724E-27  7.851E-17
1.076E+03  2.833E-27  8.091E-17
1.067E+03  2.947E-27  8.337E-17
1.057E+03  3.065E-27  8.591E-17
1.047E+03  3.187E-27  8.853E-17
1.038E+03  3.315E-27  9.122E-17
1.028E+03  3.447E-27  9.400E-17
1.019E+03  3.585E-27  9.685E-17
1.009E+03  3.728E-27  9.980E-17
1.000E+03  3.877E-27  1.028E-16
9.908E+02  4.031E-27  1.060E-16
9.817E+02  4.193E-27  1.092E-16
9.727E+02  4.360E-27  1.125E-16
9.638E+02  4.534E-27  1.159E-16
9.550E+02  4.715E-27  1.194E-16
9.462E+02  4.903E-27  1.231E-16
9.376E+02  5.099E-27  1.268E-16
9.290E+02  5.302E-27  1.307E-16
9.204E+02  5.513E-27  1.346E-16
9.120E+02  5.733E-27  1.387E-16
9.036E+02  5.961E-27  1.429E-16
8.954E+02  6.198E-27  1.472E-16
8.872E+02  6.444E-27  1.516E-16
8.790E+02  6.700E-27  1.562E-16
8.710E+02  6.966E-27  1.609E-16
8.630E+02  7.242E-27  1.658E-16
8.551E+02  7.529E-27  1.708E-16
8.472E+02  7.827E-27  1.759E-16
8.395E+02  8.136E-27  1.812E-16
8.318E+02  8.458E-27  1.866E-16
8.241E+02  8.792E-27  1.922E-16
8.166E+02  9.139E-27  1.979E-16
8.091E+02  9.499E-27  2.039E-16
8.017E+02  9.873E-27  2.099E-16
7.943E+02  1.026E-26  2.162E-16
7.870E+02  1.066E-26  2.227E-16
7.798E+02  1.108E-26  2.293E-16
7.727E+02  1.152E-26  2.361E-16
7.656E+02  1.197E-26  2.431E-16
7.586E+02  1.244E-26  2.503E-16
7.516E+02  1.293E-26  2.578E-16
7.447E+02  1.344E-26  2.654E-16
7.379E+02  1.396E-26  2.733E-16
7.311E+02  1.451E-26  2.815E-16
7.244E+02  1.508E-26  2.898E-16
7.178E+02  1.568E-26  2.985E-16
7.112E+02  1.629E-26  3.073E-16
7.047E+02  1.693E-26  3.165E-16
6.982E+02  1.760E-26  3.259E-16
6.918E+02  1.829E-26  3.356E-16
6.855E+02  1.900E-26  3.455E-16
6.792E+02  1.975E-26  3.558E-16
6.730E+02  2.052E-26  3.663E-16
6.668E+02  2.132E-26  3.772E-16
6.607E+02  2.216E-26  3.883E-16
6.546E+02  2.303E-26  3.999E-16
6.486E+02  2.393E-26  4.118E-16
6.427E+02  2.487E-26  4.240E-16
6.368E+02  2.585E-26  4.367E-16
6.310E+02  2.687E-26  4.497E-16
6.252E+02  2.793E-26  4.631E-16
6.194E+02  2.902E-26  4.769E-16
6.138E+02  3.017E-26  4.911E-16
6.081E+02  3.135E-26  5.058E-16
6.026E+02  3.259E-26  5.209E-16
5.970E+02  3.387E-26  5.364E-16
5.916E+02  3.520E-26  5.524E-16
5.861E+02  3.659E-26  5.689E-16
5.808E+02  3.803E-26  5.859E-16
5.754E+02  3.953E-26  6.033E-16
5.702E+02  4.108E-26  6.214E-16
5.649E+02  4.270E-26  6.399E-16
5.598E+02  4.438E-26  6.590E-16
5.546E+02  4.613E-26  6.787E-16
5.495E+02  4.795E-26  6.990E-16
5.445E+02  4.984E-26  7.199E-16
5.395E+02  5.180E-26  7.414E-16
5.346E+02  5.385E-26  7.635E-16
5.297E+02  5.597E-26  7.864E-16
5.248E+02  5.818E-26  8.099E-16
5.200E+02  6.047E-26  8.341E-16
5.152E+02  6.285E-26  8.590E-16
5.105E+02  6.533E-26  8.847E-16
5.058E+02  6.790E-26  9.111E-16
5.012E+02  7.058E-26  9.383E-16
4.966E+02  7.336E-26  9.664E-16
4.920E+02  7.625E-26  9.952E-16
4.875E+02  7.926E-26  1.025E-15
4.831E+02  8.238E-26  1.056E-15
4.786E+02  8.562E-26  1.087E-15
4.742E+02  8.899E-26  1.119E-15
4.699E+02  9.249E-26  1.153E-15
4.656E+02  9.614E-26  1.187E-15
4.613E+02  9.992E-26  1.223E-15
4.571E+02  1.038E-25  1.259E-15
4.529E+02  1.079E-25  1.297E-15
4.487E+02  1.122E-25  1.335E-15
4.446E+02  1.166E-25  1.375E-15
4.406E+02  1.212E-25  1.416E-15
4.365E+02  1.259E-25  1.458E-15
4.325E+02  1.309E-25  1.501E-15
4.285E+02  1.360E-25  1.546E-15
4.246E+02  1.413E-25  1.592E-15
4.207E+02  1.469E-25  1.639E-15
4.169E+02  1.526E-25  1.688E-15
4.130E+02  1.586E-25  1.738E-15
4.093E+02  1.648E-25  1.789E-15
4.055E+02  1.713E-25  1.842E-15
4.018E+02  1.780E-25  1.897E-15
3.981E+02  1.849E-25  1.953E-15
3.945E+02  1.922E-25  2.011E-15
3.908E+02  1.997E-25  2.070E-15
3.873E+02  2.075E-25  2.132E-15
3.837E+02  2.156E-25  2.195E-15
3.802E+02  2.241E-25  2.260E-15
3.767E+02  2.328E-25  2.326E-15
3.733E+02  2.419E-25  2.395E-15
3.698E+02  2.513E-25  2.465E-15
3.664E+02  2.611E-25  2.538E-15
3.631E+02  2.713E-25  2.612E-15
3.597E+02  2.818E-25  2.689E-15
3.565E+02  2.928E-25  2.768E-15
3.532E+02  3.041E-25  2.849E-15
3.499E+02  3.159E-25  2.933E-15
3.467E+02  3.282E-25  3.018E-15
3.436E+02  3.409E-25  3.106E-15
3.404E+02  3.541E-25  3.197E-15
3.373E+02  3.678E-25  3.290E-15
3.342E+02  3.820E-25  3.386E-15
3.311E+02  3.967E-25  3.484E-15
3.281E+02  4.120E-25  3.585E-15
3.251E+02  4.278E-25  3.689E-15
3.221E+02  4.442E-25  3.796E-15
3.192E+02  4.613E-25  3.905E-15
3.162E+02  4.790E-25  4.018E-15
3.133E+02  4.973E-25  4.133E-15
3.105E+02  5.163E-25  4.252E-15
3.076E+02  5.360E-25  4.374E-15
3.048E+02  5.564E-25  4.499E-15
3.020E+02  5.776E-25  4.627E-15
2.992E+02  5.996E-25  4.759E-15
2.965E+02  6.223E-25  4.894E-15
2.938E+02  6.459E-25  5.033E-15
2.911E+02  6.703E-25  5.175E-15
2.884E+02  6.956E-25  5.321E-15
2.858E+02  7.218E-25  5.471E-15
2.831E+02  7.490E-25  5.625E-15
2.805E+02  7.771E-25  5.783E-15
2.780E+02  8.062E-25  5.944E-15
2.754E+02  8.363E-25  6.110E-15
2.729E+02  8.676E-25  6.280E-15
2.704E+02  9.001E-25  6.456E-15
2.679E+02  9.337E-25  6.636E-15
2.655E+02  9.686E-25  6.820E-15
2.630E+02  1.005E-24  7.009E-15
2.606E+02  1.042E-24  7.203E-15
2.582E+02  1.081E-24  7.402E-15
2.559E+02  1.120E-24  7.604E-15
2.535E+02  1.161E-24  7.809E-15
2.512E+02  1.203E-24  8.018E-15
2.489E+02  1.246E-24  8.226E-15
2.466E+02  1.289E-24  8.433E-15
2.443E+02  1.333E-24  8.642E-15
2.421E+02  1.379E-24  8.853E-15
2.399E+02  1.425E-24  9.066E-15
2.377E+02  1.471E-24  9.277E-15
2.355E+02  1.519E-24  9.491E-15
2.333E+02  1.569E-24  9.709E-15
2.312E+02  1.619E-24  9.931E-15
2.291E+02  1.671E-24  1.016E-14
2.270E+02  1.725E-24  1.039E-14
2.249E+02  1.780E-24  1.062E-14
2.228E+02  1.836E-24  1.085E-14
2.208E+02  1.894E-24  1.109E-14
2.188E+02  1.954E-24  1.134E-14
2.168E+02  2.015E-24  1.159E-14
2.148E+02  2.078E-24  1.184E-14
2.128E+02  2.142E-24  1.209E-14
2.109E+02  2.208E-24  1.235E-14
2.089E+02  2.275E-24  1.261E-14
2.070E+02  2.344E-24  1.287E-14
2.051E+02  2.415E-24  1.314E-14
2.032E+02  2.487E-24  1.341E-14
2.014E+02  2.562E-24  1.368E-14
1.995E+02  2.638E-24  1.396E-14
1.977E+02  2.716E-24  1.424E-14
1.959E+02  2.795E-24  1.452E-14
1.941E+02  2.877E-24  1.481E-14
1.923E+02  2.960E-24  1.510E-14
1.905E+02  3.045E-24  1.539E-14
1.888E+02  3.132E-24  1.568E-14
1.871E+02  3.221E-24  1.598E-14
1.854E+02  3.312E-24  1.628E-14
1.837E+02  3.404E-24  1.658E-14
1.820E+02  3.499E-24  1.689E-14
1.803E+02  3.596E-24  1.720E-14
1.786E+02  3.695E-24  1.751E-14
1.770E+02  3.795E-24  1.782E-14
1.754E+02  3.898E-24  1.813E-14
1.738E+02  4.003E-24  1.845E-14
1.722E+02  4.110E-24  1.877E-14
1.706E+02  4.219E-24  1.909E-14
1.690E+02  4.330E-24  1.942E-14
1.675E+02  4.444E-24  1.974E-14
1.660E+02  4.560E-24  2.007E-14
1.644E+02  4.678E-24  2.040E-14
1.629E+02  4.798E-24  2.074E-14
1.614E+02  4.921E-24  2.107E-14
1.600E+02  5.047E-24  2.141E-14
1.585E+02  5.175E-24  2.175E-14
1.570E+02  5.306E-24  2.210E-14
1.556E+02  5.440E-24  2.245E-14
1.542E+02  5.576E-24  2.280E-14
1.528E+02  5.716E-24  2.316E-14
1.514E+02  5.860E-24  2.353E-14
1.500E+02  6.007E-24  2.390E-14
1.486E+02  6.157E-24  2.427E-14
1.472E+02  6.311E-24  2.465E-14
1.459E+02  6.469E-24  2.503E-14
1.445E+02  6.628E-24  2.541E-14
1.432E+02  6.789E-24  2.579E-14
1.419E+02  6.949E-24  2.616E-14
1.406E+02  7.105E-24  2.650E-14
1.393E+02  7.256E-24  2.681E-14
1.380E+02  7.399E-24  2.709E-14
1.368E+02  7.536E-24  2.734E-14
1.355E+02  7.666E-24  2.756E-14
1.343E+02  7.793E-24  2.776E-14
1.330E+02  7.918E-24  2.794E-14
1.318E+02  8.043E-24  2.812E-14
1.306E+02  8.168E-24  2.830E-14
1.294E+02  8.296E-24  2.848E-14
1.282E+02  8.425E-24  2.866E-14
1.271E+02  8.556E-24  2.884E-14
1.259E+02  8.689E-24  2.902E-14
1.247E+02  8.823E-24  2.919E-14
1.236E+02  8.959E-24  2.937E-14
1.225E+02  9.096E-24  2.955E-14
1.213E+02  9.234E-24  2.972E-14
1.202E+02  9.373E-24  2.989E-14
1.191E+02  9.512E-24  3.006E-14
1.180E+02  9.651E-24  3.022E-14
1.169E+02  9.790E-24  3.037E-14
1.159E+02  9.928E-24  3.052E-14
1.148E+02  1.007E-23  3.066E-14
1.138E+02  1.020E-23  3.079E-14
1.127E+02  1.034E-23  3.092E-14
1.117E+02  1.048E-23  3.104E-14
1.107E+02  1.061E-23  3.116E-14
1.096E+02  1.075E-23  3.127E-14
1.086E+02  1.089E-23  3.137E-14
1.076E+02  1.102E-23  3.146E-14
1.067E+02  1.115E-23  3.155E-14
1.057E+02  1.128E-23  3.162E-14
1.047E+02  1.141E-23  3.169E-14
1.038E+02  1.154E-23  3.175E-14
1.028E+02  1.166E-23  3.180E-14
1.019E+02  1.178E-23  3.183E-14
1.009E+02  1.190E-23  3.185E-14
1.000E+02  1.201E-23  3.187E-14
9.908E+01  1.213E-23  3.187E-14
9.817E+01  1.223E-23  3.186E-14
9.727E+01  1.234E-23  3.184E-14
9.638E+01  1.244E-23  3.181E-14
9.550E+01  1.254E-23  3.177E-14
9.462E+01  1.264E-23  3.172E-14
9.376E+01  1.273E-23  3.165E-14
9.290E+01  1.282E-23  3.158E-14
9.204E+01  1.290E-23  3.149E-14
9.120E+01  1.298E-23  3.140E-14
9.036E+01  1.305E-23  3.129E-14
8.954E+01  1.312E-23  3.117E-14
8.872E+01  1.319E-23  3.104E-14
8.790E+01  1.325E-23  3.090E-14
8.710E+01  1.331E-23  3.075E-14
8.630E+01  1.336E-23  3.059E-14
8.551E+01  1.341E-23  3.042E-14
8.472E+01  1.345E-23  3.023E-14
8.395E+01  1.349E-23  3.004E-14
8.318E+01  1.352E-23  2.984E-14
8.241E+01  1.355E-23  2.962E-14
8.166E+01  1.357E-23  2.940E-14
8.091E+01  1.359E-23  2.917E-14
8.017E+01  1.360E-23  2.893E-14
7.943E+01  1.361E-23  2.868E-14
7.870E+01  1.361E-23  2.842E-14
7.798E+01  1.361E-23  2.815E-14
7.727E+01  1.360E-23  2.787E-14
7.656E+01  1.358E-23  2.759E-14
7.586E+01  1.356E-23  2.729E-14
7.516E+01  1.354E-23  2.699E-14
7.447E+01  1.351E-23  2.668E-14
7.379E+01  1.347E-23  2.636E-14
7.311E+01  1.343E-23  2.604E-14
7.244E+01  1.338E-23  2.570E-14
7.178E+01  1.332E-23  2.537E-14
7.112E+01  1.326E-23  2.502E-14
7.047E+01  1.320E-23  2.468E-14
6.982E+01  1.314E-23  2.433E-14
6.918E+01  1.306E-23  2.398E-14
6.855E+01  1.299E-23  2.362E-14
6.792E+01  1.290E-23  2.325E-14
6.730E+01  1.282E-23  2.288E-14
6.668E+01  1.273E-23  2.251E-14
6.607E+01  1.263E-23  2.214E-14
6.546E+01  1.254E-23  2.177E-14
6.486E+01  1.243E-23  2.139E-14
6.427E+01  1.233E-23  2.101E-14
6.368E+01  1.222E-23  2.063E-14
6.310E+01  1.210E-23  2.026E-14
6.252E+01  1.199E-23  1.988E-14
6.194E+01  1.187E-23  1.950E-14
6.138E+01  1.175E-23  1.913E-14
6.081E+01  1.163E-23  1.875E-14
6.026E+01  1.150E-23  1.838E-14
5.970E+01  1.137E-23  1.801E-14
5.916E+01  1.124E-23  1.763E-14
5.861E+01  1.110E-23  1.726E-14
5.808E+01  1.097E-23  1.690E-14
5.754E+01  1.083E-23  1.653E-14
5.702E+01  1.069E-23  1.617E-14
5.649E+01  1.056E-23  1.582E-14
5.598E+01  1.042E-23  1.547E-14
5.546E+01  1.028E-23  1.512E-14
5.495E+01  1.014E-23  1.478E-14
5.445E+01  9.996E-24  1.444E-14
5.395E+01  9.855E-24  1.410E-14
5.346E+01  9.715E-24  1.378E-14
5.297E+01  9.575E-24  1.345E-14
5.248E+01  9.435E-24  1.313E-14
5.200E+01  9.295E-24  1.282E-14
5.152E+01  9.157E-24  1.251E-14
5.105E+01  9.018E-24  1.221E-14
5.058E+01  8.880E-24  1.192E-14
5.012E+01  8.744E-24  1.162E-14
4.966E+01  8.608E-24  1.134E-14
