# M = 1.00e+06
# logmdot = -0.50
# L2500 = 9.2243e-07
# gamma = 2.380
# dist = 10 Mpc
# 1: E_lo [keV]
# 2: E_hi [keV]
# 3: E_mid [keV]
# 4: wave_mid [micron]
# 5: nu_mid [micron]
# 6: Flux density [photons cm-2 s-1 Hz-1]
# 7: Lnu [Lsun Hz-1]
1.000000000000000082e-05 1.076783802484443460e-05 1.038391901242221855e-05 1.194001978298162072e+02 2.510820446271797363e+12 1.056142611625372326e-15 5.492034751029391346e-11
1.076783802484443460e-05 1.159463357292854477e-05 1.118123579888648968e-05 1.108859527365906388e+02 2.703610787492229980e+12 1.136702842547487841e-15 6.364820664390099535e-11
1.159463357292854477e-05 1.248491362707178613e-05 1.203977360000016460e-05 1.029788454105138413e+02 2.911204304193840820e+12 1.223365953101101692e-15 7.376054707299196645e-11
1.248491362707178613e-05 1.344355276904817373e-05 1.296423319805997993e-05 9.563558178801794440e+01 3.134737640478918457e+12 1.316582383272695324e-15 8.547602023082798265e-11
1.344355276904817373e-05 1.447579986955596004e-05 1.395967631930206689e-05 8.881595503884793175e+01 3.375434716305998535e+12 1.416841526986855137e-15 9.904807625211160714e-11
1.447579986955596004e-05 1.558730682754424590e-05 1.503155334855010213e-05 8.248262542018612464e+01 3.634613428861967773e+12 1.524670456694850595e-15 1.147702339098912101e-10
1.558730682754424590e-05 1.678415951625481658e-05 1.618573317189952955e-05 7.660091582904161100e+01 3.913692868491006348e+12 1.640619737377278952e-15 1.329810407958527190e-10
1.678415951625481658e-05 1.807291110541828282e-05 1.742853531083654801e-05 7.113862193348545304e+01 4.214201088689990234e+12 1.765300387415168501e-15 1.540738469542474207e-10
1.807291110541828282e-05 1.946061794205562184e-05 1.876676452373695063e-05 6.606583584313646895e+01 4.537783472713684570e+12 1.899345528268705515e-15 1.785018832587477942e-10
1.946061794205562184e-05 2.095487818634363467e-05 2.020774806419962656e-05 6.135478235343435927e+01 4.886211742599703125e+12 2.043444249847643698e-15 2.067902848570174825e-10
2.095487818634363467e-05 2.256387341408937170e-05 2.175937580021650318e-05 5.697966686708294048e+01 5.261393659940641602e+12 2.198334631623918217e-15 2.395464028027563407e-10
2.256387341408937170e-05 2.429641341360079312e-05 2.343014341384508072e-05 5.291653415998166565e+01 5.665383471518420898e+12 2.364794981799289770e-15 2.774711672296942340e-10
2.429641341360079312e-05 2.616198442223104434e-05 2.522919891791591704e-05 4.914313721834260207e+01 6.100393156994115234e+12 2.543688350194509457e-15 3.213784715896686071e-10
2.616198442223104434e-05 2.817080106670871752e-05 2.716639274446988093e-05 4.563881542883130038e+01 6.568804540238195312e+12 2.735893072230029522e-15 3.722035523819866819e-10
2.817080106670871752e-05 3.033386229164336125e-05 2.925233167917603769e-05 4.238438145478205854e+01 7.073182330614750977e+12 2.942339378052561285e-15 4.310252101093250729e-10
3.033386229164336125e-05 3.266301158243521522e-05 3.149843693703928654e-05 3.936201617909686234e+01 7.616288165625122070e+12 3.164065124141592968e-15 4.990957089348561521e-10
3.266301158243521522e-05 3.517100181232792907e-05 3.391700669738157553e-05 3.655517113860521050e+01 8.201095731799077148e+12 3.402151500678345436e-15 5.778572752937670610e-10
3.517100181232792907e-05 3.787156506866571791e-05 3.652128344049682010e-05 3.394847791568017925e+01 8.830807046625539062e+12 3.657754226634594692e-15 6.689751277216299732e-10
3.787156506866571791e-05 4.077948784067480885e-05 3.932552645467026338e-05 3.152766399099941808e+01 9.508869990671855469e+12 3.932079237240543971e-15 7.743659092441519940e-10
4.077948784067480885e-05 4.391069198044994867e-05 4.234508991056238215e-05 2.927947459671685948e+01 1.023899718588584570e+13 4.226451082039245356e-15 8.962482592072410459e-10
4.391069198044994867e-05 4.728232188043194804e-05 4.559650693044094497e-05 2.719160014216494048e+01 1.102518632344566211e+13 4.542230276815618201e-15 1.037170463123995679e-09
4.728232188043194804e-05 5.091283834470491183e-05 4.909758011256842993e-05 2.525260881471869112e+01 1.187174205245928906e+13 4.880869667904065234e-15 1.200070382412685059e-09
5.091283834470491183e-05 5.482211966808713048e-05 5.286747900639602454e-05 2.345188398678899944e+01 1.278329954936158594e+13 5.243932416935003575e-15 1.388337666552128759e-09
5.482211966808713048e-05 5.903157047645993293e-05 5.692684507227352832e-05 2.177956608622727330e+01 1.376484989705922266e+13 5.633012786499114080e-15 1.605858488446510317e-09
5.903157047645993293e-05 6.356423892427092825e-05 6.129790470036543737e-05 2.022649861186219411e+01 1.482176741278301758e+13 6.049844399952725643e-15 1.857116948933659917e-09
6.356423892427092825e-05 6.844494289090597501e-05 6.600459090758844486e-05 1.878417799858615567e+01 1.595983907427648633e+13 6.496313857086160947e-15 2.147289307984588461e-09
6.844494289090597501e-05 7.370040586690031204e-05 7.107267437890314352e-05 1.744470705748524608e+01 1.718529620543922070e+13 6.974135882980819116e-15 2.482232637831737302e-09
7.370040586690031204e-05 7.935940327400752773e-05 7.652990457045392666e-05 1.620075173608240959e+01 1.850484859491430078e+13 7.485340066440679566e-15 2.868746192274985977e-09
7.935940327400752773e-05 8.545292002028221517e-05 8.240616164714487145e-05 1.504550096194122943e+01 1.992572123443070703e+13 8.032020710610047217e-15 3.314621358997879927e-09
8.545292002028221517e-05 9.201432015283831224e-05 8.873362008656027048e-05 1.397262934976086868e+01 2.145569387805529297e+13 8.616279828818114086e-15 3.828753563193540626e-09
9.201432015283831224e-05 9.907952953719418199e-05 9.554692484501625389e-05 1.297626256777088827e+01 2.310314363895455078e+13 9.240340425860945149e-15 4.421341946408593701e-09
9.907952953719418199e-05 1.066872325634295773e-04 1.028833810503118796e-04 1.205094517379533769e+01 2.487709085689774609e+13 9.906480508525838179e-15 5.104039614768016915e-09
1.066872325634295773e-04 1.148790839561917123e-04 1.107831582598106516e-04 1.119161074487787211e+01 2.678724848764131250e+13 1.061702575494057792e-14 5.890145622814672185e-09
1.148790839561917123e-04 1.236999368482775941e-04 1.192895104022346532e-04 1.039355413691744623e+01 2.884407528461803516e+13 1.137437850180856649e-14 6.794841823139907626e-09
1.236999368482775941e-04 1.331980883665737233e-04 1.284490126074256723e-04 9.652405722426916412e+00 3.105883306411853125e+13 1.218092876801310386e-14 7.835389545481145018e-09
1.331980883665737233e-04 1.434255440750181688e-04 1.383118162207959325e-04 8.964107465357582072e+00 3.344364836751108594e+13 1.303910013788869581e-14 9.031425919606625707e-09
1.434255440750181688e-04 1.544383027224978540e-04 1.489319233987579979e-04 8.324890701991311204e+00 3.601157885812119531e+13 1.395132393210139110e-14 1.040525289446803187e-08
1.544383027224978540e-04 1.662966628547748072e-04 1.603674827886363442e-04 7.731255506243177145e+00 3.877668481631609375e+13 1.492009350002846525e-14 1.198221964079422497e-08
1.662966628547748072e-04 1.790655529692375457e-04 1.726811079120061764e-04 7.179951526392765793e+00 4.175410612425357812e+13 1.594748976562256662e-14 1.379070846532435439e-08
1.790655529692375457e-04 1.928148870201951159e-04 1.859402199947163443e-04 6.667960188318772019e+00 4.496014516181271094e+13 1.703572481878159386e-14 1.586292883092723917e-08
1.928148870201951159e-04 2.076199472212138242e-04 2.002174171207044700e-04 6.192478167793677990e+00 4.841235606758921094e+13 1.818683796737729218e-14 1.823511351400960958e-08
2.076199472212138242e-04 2.235617962404778448e-04 2.155908717308458345e-04 5.750902041343763038e+00 5.212964085368947656e+13 1.940264372274033731e-14 2.094790987592585070e-08
2.235617962404778448e-04 2.407277210460738285e-04 2.321447586432758502e-04 5.340814031632736381e+00 5.613235290058408594e+13 2.068462080666929623e-14 2.404672105165516337e-08
2.407277210460738285e-04 2.592117108314054784e-04 2.499697159387396670e-04 4.959968769320248327e+00 6.044240839868954688e+13 2.203399078460392120e-14 2.758226833724705252e-08
2.592117108314054784e-04 2.791149716375385050e-04 2.691633412344719917e-04 4.606280998911953084e+00 6.508340634685851562e+13 2.345137317246345889e-14 3.161066318376195767e-08
2.791149716375385050e-04 3.005464804902059509e-04 2.898307260638722550e-04 4.277814161286574546e+00 7.008075776481040625e+13 2.493709393145488984e-14 3.619425860387016576e-08
3.005464804902059509e-04 3.236235820855605668e-04 3.120850312878832317e-04 3.972769790385457078e+00 7.546182482698367188e+13 2.649065253081030864e-14 4.140139875814514013e-08
3.236235820855605668e-04 3.484726312917255531e-04 3.360481066886430871e-04 3.689477666007941359e+00 8.125607067961439062e+13 2.811075537869301772e-14 4.730677996816008846e-08
3.484726312917255531e-04 3.752296849840637007e-04 3.618511581378946540e-04 3.426386668795798673e+00 8.749522076133978125e+13 2.979553815743589768e-14 5.399214978807150245e-08
3.752296849840637007e-04 4.040412470021791298e-04 3.896354659931214152e-04 3.182056287334712685e+00 9.421343651061115625e+13 3.154181799278477978e-14 6.154526152741699588e-08
4.040412470021791298e-04 4.350650703075626649e-04 4.195531586548708974e-04 2.955148730871337559e+00 1.014475024110224688e+14 3.334557350587694095e-14 7.006072148412877645e-08
4.350650703075626649e-04 4.684710207339385269e-04 4.517680455207505959e-04 2.744421604460411501e+00 1.092370273986904531e+14 3.520080225288594031e-14 7.963747646038077012e-08
4.684710207339385269e-04 5.044420070596583247e-04 4.864565138967983987e-04 2.548721106435908101e+00 1.176246617344591094e+14 3.710066874780881781e-14 9.038059169987437212e-08
5.044420070596583247e-04 5.431749824945827617e-04 5.238084947771204890e-04 2.366975710960077084e+00 1.266563305283771406e+14 3.903652613116309258e-14 1.023983878244876325e-07
5.431749824945827617e-04 5.848820230649372232e-04 5.640285027797599382e-04 2.198190301060249929e+00 1.363814851950722969e+14 4.099807401312646411e-14 1.158014308323232049e-07
5.848820230649372232e-04 6.297914888006564058e-04 6.073367559327968145e-04 2.041440720029785272e+00 1.468533742168256250e+14 4.297277459793582662e-14 1.306990346529567239e-07
6.297914888006564058e-04 6.781492740831088174e-04 6.539703814418826658e-04 1.895868711360264358e+00 1.581293346968642812e+14 4.494653690330877513e-14 1.471986184189253540e-07
6.781492740831088174e-04 7.302201539992748784e-04 7.041847140411919021e-04 1.760677219499366952e+00 1.702711062992246562e+14 4.690269968052797587e-14 1.653993709989759703e-07
7.302201539992748784e-04 7.862892340741134108e-04 7.582546940366940904e-04 1.635126025704501718e+00 1.833451692941117500e+14 4.882280307302974564e-14 1.853903979366594144e-07
7.862892340741134108e-04 8.466635113189044208e-04 8.164763726965088616e-04 1.518527695097017016e+00 1.974231085596674688e+14 5.068626955545847652e-14 2.072446697857418460e-07
8.466635113189044208e-04 9.116735551427985898e-04 8.791685332308514511e-04 1.410243812725774371e+00 2.125820055331775625e+14 5.247049423352709532e-14 2.310131540824383632e-07
9.116735551427985898e-04 9.816753173311734866e-04 9.466744362369859840e-04 1.309681488031252172e+00 2.289048602577836875e+14 5.415125047319826182e-14 2.567193229380537983e-07
9.816753173311734866e-04 1.057052081000982562e-03 1.019363699166078024e-03 1.216290108570958095e+00 2.464810458355463750e+14 5.570300624878857330e-14 2.843526088942383707e-07
1.057052081000982562e-03 1.138216559204330682e-03 1.097634320102656730e-03 1.129558325231709182e+00 2.654067977751417500e+14 5.709916257853751523e-14 3.138606254037883054e-07
1.138216559204330682e-03 1.225613154670797617e-03 1.181914856937564149e-03 1.049011252421796492e+00 2.857857409135365625e+14 5.831284967337736536e-14 3.451436410349276731e-07
1.225613154670797617e-03 1.319720393061374385e-03 1.272666773866086001e-03 9.742078679131624952e-01 3.077294567967115625e+14 5.931828875475853556e-14 3.780530436005656835e-07
1.319720393061374385e-03 1.421053543056889417e-03 1.370386968059131901e-03 9.047385980968433161e-01 3.313580946260349375e+14 6.009092383309810796e-14 4.123837275816481126e-07
1.421053543056889417e-03 1.530167437626786401e-03 1.475610490341837909e-03 8.402230754301445170e-01 3.568010291154215000e+14 6.060886475207237947e-14 4.478754964439104111e-07
1.530167437626786401e-03 1.647659511925646724e-03 1.588913474776216563e-03 7.803080557968221642e-01 3.841975688612657500e+14 6.085405591874096793e-14 4.842160676023435562e-07
1.647659511925646724e-03 1.774173074450960137e-03 1.710916293188303322e-03 7.246654843771165311e-01 4.136977191037123125e+14 6.081336146685756699e-14 5.210473494580719130e-07
1.774173074450960137e-03 1.910400829372818285e-03 1.842286951911889211e-03 6.729906994376304574e-01 4.454630030556363125e+14 6.047946409159255090e-14 5.579748569537174341e-07
1.910400829372818285e-03 2.057088669321495682e-03 1.983744749347157200e-03 6.250007642061963242e-01 4.796673462963868750e+14 5.985244419084010096e-14 5.945893139289815604e-07
2.057088669321495682e-03 2.215039759399661454e-03 2.136064214360578785e-03 5.804329176981899430e-01 5.164980290726452500e+14 5.893926898599215108e-14 6.304758683450933571e-07
2.215039759399661454e-03 2.385118934780591348e-03 2.300079347090126618e-03 5.390431360120466753e-01 5.561567117205628750e+14 5.775544008939429719e-14 6.652503855778085260e-07
2.385118934780591348e-03 2.568257435970687941e-03 2.476688185375639645e-03 5.006047962165877108e-01 5.988605388237115000e+14 5.632300750987776735e-14 6.985646236340064550e-07
2.568257435970687941e-03 2.765458007663461164e-03 2.666857721817074769e-03 4.649074355144942050e-01 6.448433281524780000e+14 5.467120131908348913e-14 7.301429271066767872e-07
2.765458007663461164e-03 2.977800389102911848e-03 2.871629198383186289e-03 4.317555988879313023e-01 6.943568508947482500e+14 5.283486325347900343e-14 7.597983872060246571e-07
2.977800389102911848e-03 3.206447226017885253e-03 3.092123807560398334e-03 4.009677689167964743e-01 7.476722101875698750e+14 5.085189246580452296e-14 7.874326414285346167e-07
3.206447226017885253e-03 3.452650436497230104e-03 3.329548831257557462e-03 3.723753719099891502e-01 8.050813254977186250e+14 4.876164637497972914e-14 8.130423509247982823e-07
3.452650436497230104e-03 3.717758065661061050e-03 3.585204251079145577e-03 3.458218549079346005e-01 8.668985309786490000e+14 4.660300461467673833e-14 8.367143925563623449e-07
3.717758065661061050e-03 4.003221666659721734e-03 3.860489866160391609e-03 3.211618285026450192e-01 9.334622965553672500e+14 4.441233249948670709e-14 8.586089643178033051e-07
4.003221666659721734e-03 4.310604248413962142e-03 4.156912957536841938e-03 2.982602707819662635e-01 1.005137081160748500e+15 4.222155944320748853e-14 8.789306709007189986e-07
4.310604248413962142e-03 4.641588833612777208e-03 4.476096541013370109e-03 2.769917880393409360e-01 1.082315328270384250e+15 4.005747790969964893e-14 8.979092919213003134e-07
4.641588833612777208e-03 4.997987673826893330e-03 4.819788253719835269e-03 2.572399282012259314e-01 1.165419614662181500e+15 3.794101170326867167e-14 9.157697322755747392e-07
4.997987673826893330e-03 5.381752172193695130e-03 5.189869923010294664e-03 2.388965432129469824e-01 1.254904964165897500e+15 3.588734718383161120e-14 9.327113212731241522e-07
5.381752172193695130e-03 5.794983568003633789e-03 5.588367870098664460e-03 2.218611968918418331e-01 1.351261339071157750e+15 3.390647547599331976e-14 9.488925874837829037e-07
5.794983568003633789e-03 6.239944441689813069e-03 6.017464004846723863e-03 2.060406150054874819e-01 1.455016322835260750e+15 3.200412679432774086e-14 9.644259833555640504e-07
6.239944441689813069e-03 6.719071103214417987e-03 6.479507772452115094e-03 1.913481745640062404e-01 1.566738008779482750e+15 3.018206217319369708e-14 9.793554481466585215e-07
6.719071103214417987e-03 7.234986931682557167e-03 6.977029017448488010e-03 1.777034295301548050e-01 1.687038110590475250e+15 2.844086042346338608e-14 9.937169078766900428e-07
7.234986931682557167e-03 7.790516739222391566e-03 7.512751835452474367e-03 1.650316703502998084e-01 1.816575311657780750e+15 2.677847445036439284e-14 1.007475037518927815e-06
7.790516739222391566e-03 8.388702237778593307e-03 8.089609488500492870e-03 1.532635148945641346e-01 1.956058871586227000e+15 2.519220071251999495e-14 1.020570672661874657e-06
8.388702237778593307e-03 9.032818693504984092e-03 8.710760465641788700e-03 1.423345285664050219e-01 2.106252509630045750e+15 2.367895734996327358e-14 1.032923280257881564e-06
9.032818693504984092e-03 9.726392859944848340e-03 9.379605776724916216e-03 1.321848715015951359e-01 2.267978586311840000e+15 2.223540040930547256e-14 1.044429088867348784e-06
9.726392859944848340e-03 1.047322228818894398e-02 1.009980757406689703e-02 1.227589709249039263e-01 2.442122606122153500e+15 2.085825853818012324e-14 1.054971105207075588e-06
1.047322228818894398e-02 1.127739611974090152e-02 1.087530920396492275e-02 1.140052168705217861e-01 2.629638065953428000e+15 1.954440604278285192e-14 1.064421184236838358e-06
1.127739611974090152e-02 1.214331747593790437e-02 1.171035679783940381e-02 1.058756796001943529e-01 2.831551675815167000e+15 1.829079865013632461e-14 1.072635621878164213e-06
1.214331747593790437e-02 1.307572756651619560e-02 1.260952252122704911e-02 9.832584717183660838e-02 3.048968980415450000e+15 1.709460496845945132e-14 1.079461432051249370e-06
1.307572756651619560e-02 1.407973164932395209e-02 1.357772960792007384e-02 9.131438172172658130e-02 3.283080412388861500e+15 1.595312615861750830e-14 1.084731805839725418e-06
1.407973164932395209e-02 1.516082698331959293e-02 1.462027931632177251e-02 8.480289312584261829e-02 3.535167810314269000e+15 1.486388129939778458e-14 1.088271653980709150e-06
1.516082698331959293e-02 1.632493292790760872e-02 1.574287995561359996e-02 7.875572880106346263e-02 3.806611437210798000e+15 1.382448482774962762e-14 1.089889727180183009e-06
1.632493292790760872e-02 1.757842335341583406e-02 1.695167814066172313e-02 7.313977849532272979e-02 4.098897537940611500e+15 1.283277527870112110e-14 1.089388298776286436e-06
1.757842335341583406e-02 1.892816154017244387e-02 1.825329244679414070e-02 6.792429299787822172e-02 4.413626476897812500e+15 1.188701345895495970e-14 1.086584199490546497e-06
1.892816154017244387e-02 2.038153775726666075e-02 1.965484964871955231e-02 6.308071577707409505e-02 4.752521500540041000e+15 1.098525073797531654e-14 1.081257465924101403e-06
2.038153775726666075e-02 2.194650972674982645e-02 2.116402374200824360e-02 5.858252662375602882e-02 5.117438172740573000e+15 1.012585528320975363e-14 1.073196815686444542e-06
2.194650972674982645e-02 2.363164619483147655e-02 2.278907796079065323e-02 5.440509644423486418e-02 5.510374534622631000e+15 9.307418510891398185e-15 1.062197844416915106e-06
2.363164619483147655e-02 2.544617384863763834e-02 2.453891002173455571e-02 5.052555240774150858e-02 5.933482044504394000e+15 8.528694817643728553e-15 1.048062691899672283e-06
2.544617384863763834e-02 2.740002783541621231e-02 2.642310084202692533e-02 4.692265271001001825e-02 6.389077357854605000e+15 7.788578342617753998e-15 1.030602980251189037e-06
2.740002783541621231e-02 2.950390616079903022e-02 2.845196699810761953e-02 4.357667026727769788e-02 6.879655011757935000e+15 7.086199415923922529e-15 1.009659847016696479e-06
2.950390616079903022e-02 3.176932826396933890e-02 3.063661721238418456e-02 4.046928470388772014e-02 7.407901083341860000e+15 6.420814474496999690e-15 9.851000721048662223e-07
3.176932826396933890e-02 3.420869809045337662e-02 3.298901317721135429e-02 3.758348204209028404e-02 7.976707896949466000e+15 5.791870918301872588e-15 9.568362444382252711e-07
3.420869809045337662e-02 3.683537200788066651e-02 3.552203504916702503e-02 3.490346154481023533e-02 8.589189860584928000e+15 5.198950738199504331e-15 9.248322376662051429e-07
3.683537200788066651e-02 3.966373193657472818e-02 3.824955197222769387e-02 3.241454920131429246e-02 9.248700518341454000e+15 4.641758124573568080e-15 8.891156974618842785e-07
