# M = 5.00e+05
# logmdot = -1.00
# L2500 = 1.7006e-07
# gamma = 1.815
# dist = 10 Mpc
# 1: E_lo [keV]
# 2: E_hi [keV]
# 3: E_mid [keV]
# 4: wave_mid [micron]
# 5: nu_mid [micron]
# 6: Flux density [photons cm-2 s-1 Hz-1]
# 7: Lnu [Lsun Hz-1]
1.000000000000000082e-05 1.076783802484443460e-05 1.038391901242221855e-05 1.194001978298162072e+02 2.510820446271797363e+12 1.510745353520729158e-16 7.856009112938911866e-12
1.076783802484443460e-05 1.159463357292854477e-05 1.118123579888648968e-05 1.108859527365906388e+02 2.703610787492229980e+12 1.626092118309239870e-16 9.105092667509662923e-12
1.159463357292854477e-05 1.248491362707178613e-05 1.203977360000016460e-05 1.029788454105138413e+02 2.911204304193840820e+12 1.750194422767398248e-16 1.055246778612564275e-11
1.248491362707178613e-05 1.344355276904817373e-05 1.296423319805997993e-05 9.563558178801794440e+01 3.134737640478918457e+12 1.883701960508459077e-16 1.222949273292244327e-11
1.344355276904817373e-05 1.447579986955596004e-05 1.395967631930206689e-05 8.881595503884793175e+01 3.375434716305998535e+12 2.027320478271804489e-16 1.417252314352838817e-11
1.447579986955596004e-05 1.558730682754424590e-05 1.503155334855010213e-05 8.248262542018612464e+01 3.634613428861967773e+12 2.181809002894952511e-16 1.642366247141607049e-11
1.558730682754424590e-05 1.678415951625481658e-05 1.618573317189952955e-05 7.660091582904161100e+01 3.913692868491006348e+12 2.347963706000595234e-16 1.903150683009519765e-11
1.678415951625481658e-05 1.807291110541828282e-05 1.742853531083654801e-05 7.113862193348545304e+01 4.214201088689990234e+12 2.526667804937007677e-16 2.205253176498248024e-11
1.807291110541828282e-05 1.946061794205562184e-05 1.876676452373695063e-05 6.606583584313646895e+01 4.537783472713684570e+12 2.718836542048025941e-16 2.555182486836145801e-11
1.946061794205562184e-05 2.095487818634363467e-05 2.020774806419962656e-05 6.135478235343435927e+01 4.886211742599703125e+12 2.925468431114491616e-16 2.960484242501269799e-11
2.095487818634363467e-05 2.256387341408937170e-05 2.175937580021650318e-05 5.697966686708294048e+01 5.261393659940641602e+12 3.147631551537530677e-16 3.429886445278300643e-11
2.256387341408937170e-05 2.429641341360079312e-05 2.343014341384508072e-05 5.291653415998166565e+01 5.665383471518420898e+12 3.386456741159824328e-16 3.973469632566373874e-11
2.429641341360079312e-05 2.616198442223104434e-05 2.522919891791591704e-05 4.914313721834260207e+01 6.100393156994115234e+12 3.643198165778658814e-16 4.602943824178373656e-11
2.616198442223104434e-05 2.817080106670871752e-05 2.716639274446988093e-05 4.563881542883130038e+01 6.568804540238195312e+12 3.919133080892461990e-16 5.331769979507766141e-11
2.817080106670871752e-05 3.033386229164336125e-05 2.925233167917603769e-05 4.238438145478205854e+01 7.073182330614750977e+12 4.215616205908222511e-16 6.175483611596514481e-11
3.033386229164336125e-05 3.266301158243521522e-05 3.149843693703928654e-05 3.936201617909686234e+01 7.616288165625122070e+12 4.534165088539612347e-16 7.152135782623301616e-11
3.266301158243521522e-05 3.517100181232792907e-05 3.391700669738157553e-05 3.655517113860521050e+01 8.201095731799077148e+12 4.876357071235304858e-16 8.282518900118605566e-11
3.517100181232792907e-05 3.787156506866571791e-05 3.652128344049682010e-05 3.394847791568017925e+01 8.830807046625539062e+12 5.243886230667968353e-16 9.590664772866515105e-11
3.787156506866571791e-05 4.077948784067480885e-05 3.932552645467026338e-05 3.152766399099941808e+01 9.508869990671855469e+12 5.638525220496714760e-16 1.110425666861736862e-10
4.077948784067480885e-05 4.391069198044994867e-05 4.234508991056238215e-05 2.927947459671685948e+01 1.023899718588584570e+13 6.062218738400815805e-16 1.285535520407283506e-10
4.391069198044994867e-05 4.728232188043194804e-05 4.559650693044094497e-05 2.719160014216494048e+01 1.102518632344566211e+13 6.516975710666705624e-16 1.488082792829834728e-10
4.728232188043194804e-05 5.091283834470491183e-05 4.909758011256842993e-05 2.525260881471869112e+01 1.187174205245928906e+13 7.004947442307440660e-16 1.722322153191302887e-10
5.091283834470491183e-05 5.482211966808713048e-05 5.286747900639602454e-05 2.345188398678899944e+01 1.278329954936158594e+13 7.528449499572571674e-16 1.993166421679624387e-10
5.482211966808713048e-05 5.903157047645993293e-05 5.692684507227352832e-05 2.177956608622727330e+01 1.376484989705922266e+13 8.089858134323405258e-16 2.306255612710090799e-10
5.903157047645993293e-05 6.356423892427092825e-05 6.129790470036543737e-05 2.022649861186219411e+01 1.482176741278301758e+13 8.691764060271835860e-16 2.668105373518268242e-10
6.356423892427092825e-05 6.844494289090597501e-05 6.600459090758844486e-05 1.878417799858615567e+01 1.595983907427648633e+13 9.336993424337635764e-16 3.086246537631948129e-10
6.844494289090597501e-05 7.370040586690031204e-05 7.107267437890314352e-05 1.744470705748524608e+01 1.718529620543922070e+13 1.002814202383541896e-15 3.569213712787182909e-10
7.370040586690031204e-05 7.935940327400752773e-05 7.652990457045392666e-05 1.620075173608240959e+01 1.850484859491430078e+13 1.076828519631572628e-15 4.126930357213670734e-10
7.935940327400752773e-05 8.545292002028221517e-05 8.240616164714487145e-05 1.504550096194122943e+01 1.992572123443070703e+13 1.156061149568012752e-15 4.770785729678151703e-10
8.545292002028221517e-05 9.201432015283831224e-05 8.873362008656027048e-05 1.397262934976086868e+01 2.145569387805529297e+13 1.240834486691564369e-15 5.513805907700450292e-10
9.201432015283831224e-05 9.907952953719418199e-05 9.554692484501625389e-05 1.297626256777088827e+01 2.310314363895455078e+13 1.331492895692858642e-15 6.370961587731085084e-10
9.907952953719418199e-05 1.066872325634295773e-04 1.028833810503118796e-04 1.205094517379533769e+01 2.487709085689774609e+13 1.428391496092683042e-15 7.359391435919459269e-10
1.066872325634295773e-04 1.148790839561917123e-04 1.107831582598106516e-04 1.119161074487787211e+01 2.678724848764131250e+13 1.531896686205066985e-15 8.498702714982325863e-10
1.148790839561917123e-04 1.236999368482775941e-04 1.192895104022346532e-04 1.039355413691744623e+01 2.884407528461803516e+13 1.642390820001481580e-15 9.811336796918327841e-10
1.236999368482775941e-04 1.331980883665737233e-04 1.284490126074256723e-04 9.652405722426916412e+00 3.105883306411853125e+13 1.760259305855893037e-15 1.132287826742533255e-09
1.331980883665737233e-04 1.434255440750181688e-04 1.383118162207959325e-04 8.964107465357582072e+00 3.344364836751108594e+13 1.885900620222778288e-15 1.306253618974055029e-09
1.434255440750181688e-04 1.544383027224978540e-04 1.489319233987579979e-04 8.324890701991311204e+00 3.601157885812119531e+13 2.019719713396362198e-15 1.506358428498347889e-09
1.544383027224978540e-04 1.662966628547748072e-04 1.603674827886363442e-04 7.731255506243177145e+00 3.877668481631609375e+13 2.162140112153468831e-15 1.736399153124938282e-09
1.662966628547748072e-04 1.790655529692375457e-04 1.726811079120061764e-04 7.179951526392765793e+00 4.175410612425357812e+13 2.313533572900295332e-15 2.000645085685224878e-09
1.790655529692375457e-04 1.928148870201951159e-04 1.859402199947163443e-04 6.667960188318772019e+00 4.496014516181271094e+13 2.474300926374043668e-15 2.303961816646434656e-09
1.928148870201951159e-04 2.076199472212138242e-04 2.002174171207044700e-04 6.192478167793677990e+00 4.841235606758921094e+13 2.644832467685767252e-15 2.651852969730018065e-09
2.076199472212138242e-04 2.235617962404778448e-04 2.155908717308458345e-04 5.750902041343763038e+00 5.212964085368947656e+13 2.825493919308642866e-15 3.050522022794453335e-09
2.235617962404778448e-04 2.407277210460738285e-04 2.321447586432758502e-04 5.340814031632736381e+00 5.613235290058408594e+13 3.016621969867019487e-15 3.506946910252174137e-09
2.407277210460738285e-04 2.592117108314054784e-04 2.499697159387396670e-04 4.959968769320248327e+00 6.044240839868954688e+13 3.218528090219402539e-15 4.028970798037603169e-09
2.592117108314054784e-04 2.791149716375385050e-04 2.691633412344719917e-04 4.606280998911953084e+00 6.508340634685851562e+13 3.431456286440583301e-15 4.625341471596290052e-09
2.791149716375385050e-04 3.005464804902059509e-04 2.898307260638722550e-04 4.277814161286574546e+00 7.008075776481040625e+13 3.655626493166547275e-15 5.305858453936921499e-09
3.005464804902059509e-04 3.236235820855605668e-04 3.120850312878832317e-04 3.972769790385457078e+00 7.546182482698367188e+13 3.891158410928386927e-15 6.081367788678956930e-09
3.236235820855605668e-04 3.484726312917255531e-04 3.360481066886430871e-04 3.689477666007941359e+00 8.125607067961439062e+13 4.138080850779164451e-15 6.963856988583289018e-09
3.484726312917255531e-04 3.752296849840637007e-04 3.618511581378946540e-04 3.426386668795798673e+00 8.749522076133978125e+13 4.396357818307752851e-15 7.966589111222100476e-09
3.752296849840637007e-04 4.040412470021791298e-04 3.896354659931214152e-04 3.182056287334712685e+00 9.421343651061115625e+13 4.665793277130175139e-15 9.104023983003394895e-09
4.040412470021791298e-04 4.350650703075626649e-04 4.195531586548708974e-04 2.955148730871337559e+00 1.014475024110224688e+14 4.946089516272087869e-15 1.039198201146652711e-08
4.350650703075626649e-04 4.684710207339385269e-04 4.517680455207505959e-04 2.744421604460411501e+00 1.092370273986904531e+14 5.236677972579692796e-15 1.184733847188721522e-08
4.684710207339385269e-04 5.044420070596583247e-04 4.864565138967983987e-04 2.548721106435908101e+00 1.176246617344591094e+14 5.536901293300330810e-15 1.348839338918490904e-08
5.044420070596583247e-04 5.431749824945827617e-04 5.238084947771204890e-04 2.366975710960077084e+00 1.266563305283771406e+14 5.845853361888377906e-15 1.533450895974732376e-08
5.431749824945827617e-04 5.848820230649372232e-04 5.640285027797599382e-04 2.198190301060249929e+00 1.363814851950722969e+14 6.162401159191720393e-15 1.740605842529793855e-08
5.848820230649372232e-04 6.297914888006564058e-04 6.073367559327968145e-04 2.041440720029785272e+00 1.468533742168256250e+14 6.485097009710469266e-15 1.972402123740570480e-08
6.297914888006564058e-04 6.781492740831088174e-04 6.539703814418826658e-04 1.895868711360264358e+00 1.581293346968642812e+14 6.812266352737691701e-15 2.230997679714232108e-08
6.781492740831088174e-04 7.302201539992748784e-04 7.041847140411919021e-04 1.760677219499366952e+00 1.702711062992246562e+14 7.141841050614513093e-15 2.518524574475003846e-08
7.302201539992748784e-04 7.862892340741134108e-04 7.582546940366940904e-04 1.635126025704501718e+00 1.833451692941117500e+14 7.471469104403963583e-15 2.837073136429712797e-08
7.862892340741134108e-04 8.466635113189044208e-04 8.164763726965088616e-04 1.518527695097017016e+00 1.974231085596674688e+14 7.798438389978174643e-15 3.188604730926443805e-08
8.466635113189044208e-04 9.116735551427985898e-04 8.791685332308514511e-04 1.410243812725774371e+00 2.125820055331775625e+14 8.119664979600662613e-15 3.574865158849062829e-08
9.116735551427985898e-04 9.816753173311734866e-04 9.466744362369859840e-04 1.309681488031252172e+00 2.289048602577836875e+14 8.431738785057751169e-15 3.997304315552050384e-08
9.816753173311734866e-04 1.057052081000982562e-03 1.019363699166078024e-03 1.216290108570958095e+00 2.464810458355463750e+14 8.730917919907327641e-15 4.456957453029921531e-08
1.057052081000982562e-03 1.138216559204330682e-03 1.097634320102656730e-03 1.129558325231709182e+00 2.654067977751417500e+14 9.013121706545684298e-15 4.954300357322935511e-08
1.138216559204330682e-03 1.225613154670797617e-03 1.181914856937564149e-03 1.049011252421796492e+00 2.857857409135365625e+14 9.274041680361938075e-15 5.489144383439647688e-08
1.225613154670797617e-03 1.319720393061374385e-03 1.272666773866086001e-03 9.742078679131624952e-01 3.077294567967115625e+14 9.509275711527406444e-15 6.060543384929455313e-08
1.319720393061374385e-03 1.421053543056889417e-03 1.370386968059131901e-03 9.047385980968433161e-01 3.313580946260349375e+14 9.714320221148479329e-15 6.666610077165211202e-08
1.421053543056889417e-03 1.530167437626786401e-03 1.475610490341837909e-03 8.402230754301445170e-01 3.568010291154215000e+14 9.884766681952611876e-15 7.304450929779830398e-08
1.530167437626786401e-03 1.647659511925646724e-03 1.588913474776216563e-03 7.803080557968221642e-01 3.841975688612657500e+14 1.001643933475188514e-14 7.970086451636693138e-08
1.647659511925646724e-03 1.774173074450960137e-03 1.710916293188303322e-03 7.246654843771165311e-01 4.136977191037123125e+14 1.010558663082622137e-14 8.658441174281325732e-08
1.774173074450960137e-03 1.910400829372818285e-03 1.842286951911889211e-03 6.729906994376304574e-01 4.454630030556363125e+14 1.014902689266131351e-14 9.363346573435241375e-08
1.910400829372818285e-03 2.057088669321495682e-03 1.983744749347157200e-03 6.250007642061963242e-01 4.796673462963868750e+14 1.014445121958942943e-14 1.007775433800047095e-07
2.057088669321495682e-03 2.215039759399661454e-03 2.136064214360578785e-03 5.804329176981899430e-01 5.164980290726452500e+14 1.009044063789897056e-14 1.079378728751445636e-07
2.215039759399661454e-03 2.385118934780591348e-03 2.300079347090126618e-03 5.390431360120466753e-01 5.561567117205628750e+14 9.986846900224942038e-15 1.150325188553309125e-07
2.385118934780591348e-03 2.568257435970687941e-03 2.476688185375639645e-03 5.006047962165877108e-01 5.988605388237115000e+14 9.834638149005347705e-15 1.219773339683911407e-07
2.568257435970687941e-03 2.765458007663461164e-03 2.666857721817074769e-03 4.649074355144942050e-01 6.448433281524780000e+14 9.636166426377908474e-15 1.286925948376178676e-07
2.765458007663461164e-03 2.977800389102911848e-03 2.871629198383186289e-03 4.317555988879313023e-01 6.943568508947482500e+14 9.395085634438888152e-15 1.351072090120176610e-07
2.977800389102911848e-03 3.206447226017885253e-03 3.092123807560398334e-03 4.009677689167964743e-01 7.476722101875698750e+14 9.116148523801587660e-15 1.411619619973636346e-07
3.206447226017885253e-03 3.452650436497230104e-03 3.329548831257557462e-03 3.723753719099891502e-01 8.050813254977186250e+14 8.805017891551462238e-15 1.468131816434158888e-07
3.452650436497230104e-03 3.717758065661061050e-03 3.585204251079145577e-03 3.458218549079346005e-01 8.668985309786490000e+14 8.468026113451092492e-15 1.520356763313981085e-07
3.717758065661061050e-03 4.003221666659721734e-03 3.860489866160391609e-03 3.211618285026450192e-01 9.334622965553672500e+14 8.111822444458925526e-15 1.568231857186803873e-07
4.003221666659721734e-03 4.310604248413962142e-03 4.156912957536841938e-03 2.982602707819662635e-01 1.005137081160748500e+15 7.742968459225107410e-15 1.611861937923917619e-07
4.310604248413962142e-03 4.641588833612777208e-03 4.476096541013370109e-03 2.769917880393409360e-01 1.082315328270384250e+15 7.367655297449636707e-15 1.651498420885685732e-07
4.641588833612777208e-03 4.997987673826893330e-03 4.819788253719835269e-03 2.572399282012259314e-01 1.165419614662181500e+15 6.991400579141187509e-15 1.687491384432386519e-07
4.997987673826893330e-03 5.381752172193695130e-03 5.189869923010294664e-03 2.388965432129469824e-01 1.254904964165897500e+15 6.618834854746872902e-15 1.720233644196722160e-07
5.381752172193695130e-03 5.794983568003633789e-03 5.588367870098664460e-03 2.218611968918418331e-01 1.351261339071157750e+15 6.253633001281857227e-15 1.750115845559283751e-07
5.794983568003633789e-03 6.239944441689813069e-03 6.017464004846723863e-03 2.060406150054874819e-01 1.455016322835260750e+15 5.898515892190630642e-15 1.777483893318597195e-07
6.239944441689813069e-03 6.719071103214417987e-03 6.479507772452115094e-03 1.913481745640062404e-01 1.566738008779482750e+15 5.555192295310851261e-15 1.802563326752082999e-07
6.719071103214417987e-03 7.234986931682557167e-03 6.977029017448488010e-03 1.777034295301548050e-01 1.687038110590475250e+15 5.224858475823314151e-15 1.825553141284394274e-07
7.234986931682557167e-03 7.790516739222391566e-03 7.512751835452474367e-03 1.650316703502998084e-01 1.816575311657780750e+15 4.907916640255527132e-15 1.846484388214998810e-07
7.790516739222391566e-03 8.388702237778593307e-03 8.089609488500492870e-03 1.532635148945641346e-01 1.956058871586227000e+15 4.604394471814599232e-15 1.865303479010900653e-07
8.388702237778593307e-03 9.032818693504984092e-03 8.710760465641788700e-03 1.423345285664050219e-01 2.106252509630045750e+15 4.314059163981019580e-15 1.881878529120607617e-07
9.032818693504984092e-03 9.726392859944848340e-03 9.379605776724916216e-03 1.321848715015951359e-01 2.267978586311840000e+15 4.036487461830936602e-15 1.895996853836842985e-07
9.726392859944848340e-03 1.047322228818894398e-02 1.009980757406689703e-02 1.227589709249039263e-01 2.442122606122153500e+15 3.771196409056012044e-15 1.907399525388133384e-07
1.047322228818894398e-02 1.127739611974090152e-02 1.087530920396492275e-02 1.140052168705217861e-01 2.629638065953428000e+15 3.517677114526784555e-15 1.915786047327887604e-07
1.127739611974090152e-02 1.214331747593790437e-02 1.171035679783940381e-02 1.058756796001943529e-01 2.831551675815167000e+15 3.275421854951366670e-15 1.920820531405775247e-07
1.214331747593790437e-02 1.307572756651619560e-02 1.260952252122704911e-02 9.832584717183660838e-02 3.048968980415450000e+15 3.043960960169584278e-15 1.922149393469647276e-07
1.307572756651619560e-02 1.407973164932395209e-02 1.357772960792007384e-02 9.131438172172658130e-02 3.283080412388861500e+15 2.822844011233315790e-15 1.919391003032300406e-07
1.407973164932395209e-02 1.516082698331959293e-02 1.462027931632177251e-02 8.480289312584261829e-02 3.535167810314269000e+15 2.611680144192143958e-15 1.912163729606556500e-07
1.516082698331959293e-02 1.632493292790760872e-02 1.574287995561359996e-02 7.875572880106346263e-02 3.806611437210798000e+15 2.410100213988163040e-15 1.900066076551255818e-07
1.632493292790760872e-02 1.757842335341583406e-02 1.695167814066172313e-02 7.313977849532272979e-02 4.098897537940611500e+15 2.217790111304621392e-15 1.882706229888530608e-07
1.757842335341583406e-02 1.892816154017244387e-02 1.825329244679414070e-02 6.792429299787822172e-02 4.413626476897812500e+15 2.034528662401598470e-15 1.859749469965321568e-07
1.892816154017244387e-02 2.038153775726666075e-02 1.965484964871955231e-02 6.308071577707409505e-02 4.752521500540041000e+15 1.860061811159181959e-15 1.830823682015341349e-07
2.038153775726666075e-02 2.194650972674982645e-02 2.116402374200824360e-02 5.858252662375602882e-02 5.117438172740573000e+15 1.694210093676286032e-15 1.795622025778026465e-07
2.194650972674982645e-02 2.363164619483147655e-02 2.278907796079065323e-02 5.440509644423486418e-02 5.510374534622631000e+15 1.536842277205224103e-15 1.753902601613892383e-07
2.363164619483147655e-02 2.544617384863763834e-02 2.453891002173455571e-02 5.052555240774150858e-02 5.933482044504394000e+15 1.387863969653788581e-15 1.705499468707425024e-07
2.544617384863763834e-02 2.740002783541621231e-02 2.642310084202692533e-02 4.692265271001001825e-02 6.389077357854605000e+15 1.247212222764090910e-15 1.650340507911439036e-07
2.740002783541621231e-02 2.950390616079903022e-02 2.845196699810761953e-02 4.357667026727769788e-02 6.879655011757935000e+15 1.114864256167770676e-15 1.588487154055021412e-07
2.950390616079903022e-02 3.176932826396933890e-02 3.063661721238418456e-02 4.046928470388772014e-02 7.407901083341860000e+15 9.908164019314754914e-16 1.520139404217630571e-07
3.176932826396933890e-02 3.420869809045337662e-02 3.298901317721135429e-02 3.758348204209028404e-02 7.976707896949466000e+15 8.750835800648826840e-16 1.445667035971050315e-07
3.420869809045337662e-02 3.683537200788066651e-02 3.552203504916702503e-02 3.490346154481023533e-02 8.589189860584928000e+15 7.676877578210053168e-16 1.365626301626455836e-07
3.683537200788066651e-02 3.966373193657472818e-02 3.824955197222769387e-02 3.241454920131429246e-02 9.248700518341454000e+15 6.686380420938550732e-16 1.280757340626063519e-07
