# M = 5.00e+05
# logmdot = 0.00
# L2500 = 8.1754e-07
# gamma = 2.984
# dist = 10 Mpc
# 1: E_lo [keV]
# 2: E_hi [keV]
# 3: E_mid [keV]
# 4: wave_mid [micron]
# 5: nu_mid [micron]
# 6: Flux density [photons cm-2 s-1 Hz-1]
# 7: Lnu [Lsun Hz-1]
1.000000000000000082e-05 1.076783802484443460e-05 1.038391901242221855e-05 1.194001978298162072e+02 2.510820446271797363e+12 9.682846232346661454e-16 5.035165460759289567e-11
1.076783802484443460e-05 1.159463357292854477e-05 1.118123579888648968e-05 1.108859527365906388e+02 2.703610787492229980e+12 1.042127533470436062e-15 5.835258443708355685e-11
1.159463357292854477e-05 1.248491362707178613e-05 1.203977360000016460e-05 1.029788454105138413e+02 2.911204304193840820e+12 1.121561784390866951e-15 6.762245637384896056e-11
1.248491362707178613e-05 1.344355276904817373e-05 1.296423319805997993e-05 9.563558178801794440e+01 3.134737640478918457e+12 1.207000076196114367e-15 7.836164621548117797e-11
1.344355276904817373e-05 1.447579986955596004e-05 1.395967631930206689e-05 8.881595503884793175e+01 3.375434716305998535e+12 1.298889713566811453e-15 9.080234094073283220e-11
1.447579986955596004e-05 1.558730682754424590e-05 1.503155334855010213e-05 8.248262542018612464e+01 3.634613428861967773e+12 1.397713516160291866e-15 1.052134948141380860e-10
1.558730682754424590e-05 1.678415951625481658e-05 1.618573317189952955e-05 7.660091582904161100e+01 3.913692868491006348e+12 1.503974655397669527e-15 1.219052230379048382e-10
1.678415951625481658e-05 1.807291110541828282e-05 1.742853531083654801e-05 7.113862193348545304e+01 4.214201088689990234e+12 1.618232711161695279e-15 1.412379110395823865e-10
1.807291110541828282e-05 1.946061794205562184e-05 1.876676452373695063e-05 6.606583584313646895e+01 4.537783472713684570e+12 1.741065996992571967e-15 1.636266570328724779e-10
1.946061794205562184e-05 2.095487818634363467e-05 2.020774806419962656e-05 6.135478235343435927e+01 4.886211742599703125e+12 1.873105045571289405e-15 1.895524803134135813e-10
2.095487818634363467e-05 2.256387341408937170e-05 2.175937580021650318e-05 5.697966686708294048e+01 5.261393659940641602e+12 2.015024178332046100e-15 2.195715731974140664e-10
2.256387341408937170e-05 2.429641341360079312e-05 2.343014341384508072e-05 5.291653415998166565e+01 5.665383471518420898e+12 2.167534951538971224e-15 2.543258327438902071e-10
2.429641341360079312e-05 2.616198442223104434e-05 2.522919891791591704e-05 4.914313721834260207e+01 6.100393156994115234e+12 2.331425708426756636e-15 2.945604679683958592e-10
2.616198442223104434e-05 2.817080106670871752e-05 2.716639274446988093e-05 4.563881542883130038e+01 6.568804540238195312e+12 2.507498596618723721e-15 3.411317111503928103e-10
2.817080106670871752e-05 3.033386229164336125e-05 2.925233167917603769e-05 4.238438145478205854e+01 7.073182330614750977e+12 2.696603021547015721e-15 3.950271313409924991e-10
3.033386229164336125e-05 3.266301158243521522e-05 3.149843693703928654e-05 3.936201617909686234e+01 7.616288165625122070e+12 2.899686535071174011e-15 4.573929581499475516e-10
3.266301158243521522e-05 3.517100181232792907e-05 3.391700669738157553e-05 3.655517113860521050e+01 8.201095731799077148e+12 3.117734832034429870e-15 5.295489500595929582e-10
3.517100181232792907e-05 3.787156506866571791e-05 3.652128344049682010e-05 3.394847791568017925e+01 8.830807046625539062e+12 3.351802703203967304e-15 6.130189462009414211e-10
3.787156506866571791e-05 4.077948784067480885e-05 3.932552645467026338e-05 3.152766399099941808e+01 9.508869990671855469e+12 3.602987999331721379e-15 7.095561685720924724e-10
4.077948784067480885e-05 4.391069198044994867e-05 4.234508991056238215e-05 2.927947459671685948e+01 1.023899718588584570e+13 3.872498416112252859e-15 8.211901420017846693e-10
4.391069198044994867e-05 4.728232188043194804e-05 4.559650693044094497e-05 2.719160014216494048e+01 1.102518632344566211e+13 4.161573122356934677e-15 9.502514094607458379e-10
4.728232188043194804e-05 5.091283834470491183e-05 4.909758011256842993e-05 2.525260881471869112e+01 1.187174205245928906e+13 4.471531925383825752e-15 1.099425592728482131e-09
5.091283834470491183e-05 5.482211966808713048e-05 5.286747900639602454e-05 2.345188398678899944e+01 1.278329954936158594e+13 4.803797136621514047e-15 1.271811300563062439e-09
5.482211966808713048e-05 5.903157047645993293e-05 5.692684507227352832e-05 2.177956608622727330e+01 1.376484989705922266e+13 5.159818627210426661e-15 1.470960364444680907e-09
5.903157047645993293e-05 6.356423892427092825e-05 6.129790470036543737e-05 2.022649861186219411e+01 1.482176741278301758e+13 5.541168430013806995e-15 1.700969004815259533e-09
6.356423892427092825e-05 6.844494289090597501e-05 6.600459090758844486e-05 1.878417799858615567e+01 1.595983907427648633e+13 5.949559199939400230e-15 1.966565215028183747e-09
6.844494289090597501e-05 7.370040586690031204e-05 7.107267437890314352e-05 1.744470705748524608e+01 1.718529620543922070e+13 6.386541622190542432e-15 2.273096240662366260e-09
7.370040586690031204e-05 7.935940327400752773e-05 7.652990457045392666e-05 1.620075173608240959e+01 1.850484859491430078e+13 6.853953843246814395e-15 2.626768298476559850e-09
7.935940327400752773e-05 8.545292002028221517e-05 8.240616164714487145e-05 1.504550096194122943e+01 1.992572123443070703e+13 7.353688190378552375e-15 3.034689877111622897e-09
8.545292002028221517e-05 9.201432015283831224e-05 8.873362008656027048e-05 1.397262934976086868e+01 2.145569387805529297e+13 7.887636233298875497e-15 3.504971511302462101e-09
9.201432015283831224e-05 9.907952953719418199e-05 9.554692484501625389e-05 1.297626256777088827e+01 2.310314363895455078e+13 8.457806180346963081e-15 4.046912940036805715e-09
9.907952953719418199e-05 1.066872325634295773e-04 1.028833810503118796e-04 1.205094517379533769e+01 2.487709085689774609e+13 9.066243277669435665e-15 4.671130661037866226e-09
1.066872325634295773e-04 1.148790839561917123e-04 1.107831582598106516e-04 1.119161074487787211e+01 2.678724848764131250e+13 9.715031499097779921e-15 5.389734524594992472e-09
1.148790839561917123e-04 1.236999368482775941e-04 1.192895104022346532e-04 1.039355413691744623e+01 2.884407528461803516e+13 1.040631899351024805e-14 6.216541106909321845e-09
1.236999368482775941e-04 1.331980883665737233e-04 1.284490126074256723e-04 9.652405722426916412e+00 3.105883306411853125e+13 1.114223513692709674e-14 7.167249260534985317e-09
1.331980883665737233e-04 1.434255440750181688e-04 1.383118162207959325e-04 8.964107465357582072e+00 3.344364836751108594e+13 1.192493155958279987e-14 8.259706178941111364e-09
1.434255440750181688e-04 1.544383027224978540e-04 1.489319233987579979e-04 8.324890701991311204e+00 3.601157885812119531e+13 1.275655818759371735e-14 9.514166157341629170e-09
1.544383027224978540e-04 1.662966628547748072e-04 1.603674827886363442e-04 7.731255506243177145e+00 3.877668481631609375e+13 1.363930628378927702e-14 1.095362865119552903e-08
1.662966628547748072e-04 1.790655529692375457e-04 1.726811079120061764e-04 7.179951526392765793e+00 4.175410612425357812e+13 1.457498354565392091e-14 1.260382366874439486e-08
1.790655529692375457e-04 1.928148870201951159e-04 1.859402199947163443e-04 6.667960188318772019e+00 4.496014516181271094e+13 1.556550000907952968e-14 1.449391918972575472e-08
1.928148870201951159e-04 2.076199472212138242e-04 2.002174171207044700e-04 6.192478167793677990e+00 4.841235606758921094e+13 1.661259543910911199e-14 1.665669228141029137e-08
2.076199472212138242e-04 2.235617962404778448e-04 2.155908717308458345e-04 5.750902041343763038e+00 5.212964085368947656e+13 1.771778067596972030e-14 1.912886089675694817e-08
2.235617962404778448e-04 2.407277210460738285e-04 2.321447586432758502e-04 5.340814031632736381e+00 5.613235290058408594e+13 1.888224611087918412e-14 2.195138645764354335e-08
2.407277210460738285e-04 2.592117108314054784e-04 2.499697159387396670e-04 4.959968769320248327e+00 6.044240839868954688e+13 2.010692744904868895e-14 2.516996007481032400e-08
2.592117108314054784e-04 2.791149716375385050e-04 2.691633412344719917e-04 4.606280998911953084e+00 6.508340634685851562e+13 2.139217676726699636e-14 2.883502341566896203e-08
2.791149716375385050e-04 3.005464804902059509e-04 2.898307260638722550e-04 4.277814161286574546e+00 7.008075776481040625e+13 2.273807875355331658e-14 3.300255855086557356e-08
3.005464804902059509e-04 3.236235820855605668e-04 3.120850312878832317e-04 3.972769790385457078e+00 7.546182482698367188e+13 2.414390360605732473e-14 3.773373946187280401e-08
3.236235820855605668e-04 3.484726312917255531e-04 3.360481066886430871e-04 3.689477666007941359e+00 8.125607067961439062e+13 2.560820976958705310e-14 4.309531809545657508e-08
3.484726312917255531e-04 3.752296849840637007e-04 3.618511581378946540e-04 3.426386668795798673e+00 8.749522076133978125e+13 2.712896501008526526e-14 4.916008345545942425e-08
3.752296849840637007e-04 4.040412470021791298e-04 3.896354659931214152e-04 3.182056287334712685e+00 9.421343651061115625e+13 2.870294614298491381e-14 5.600597680772448843e-08
4.040412470021791298e-04 4.350650703075626649e-04 4.195531586548708974e-04 2.955148730871337559e+00 1.014475024110224688e+14 3.032610440580957193e-14 6.371666554481589614e-08
4.350650703075626649e-04 4.684710207339385269e-04 4.517680455207505959e-04 2.744421604460411501e+00 1.092370273986904531e+14 3.199258349314956015e-14 7.237927694200725541e-08
4.684710207339385269e-04 5.044420070596583247e-04 4.864565138967983987e-04 2.548721106435908101e+00 1.176246617344591094e+14 3.369575155522646918e-14 8.208590481305531292e-08
5.044420070596583247e-04 5.431749824945827617e-04 5.238084947771204890e-04 2.366975710960077084e+00 1.266563305283771406e+14 3.542727130953483166e-14 9.293079652958874330e-08
5.431749824945827617e-04 5.848820230649372232e-04 5.640285027797599382e-04 2.198190301060249929e+00 1.363814851950722969e+14 3.717734473435508244e-14 1.050095600443682118e-07
5.848820230649372232e-04 6.297914888006564058e-04 6.073367559327968145e-04 2.041440720029785272e+00 1.468533742168256250e+14 3.893410899308642587e-14 1.184156831407815821e-07
6.297914888006564058e-04 6.781492740831088174e-04 6.539703814418826658e-04 1.895868711360264358e+00 1.581293346968642812e+14 4.068433084817303405e-14 1.332400159111852329e-07
6.781492740831088174e-04 7.302201539992748784e-04 7.041847140411919021e-04 1.760677219499366952e+00 1.702711062992246562e+14 4.241245991176539471e-14 1.495648276049579031e-07
7.302201539992748784e-04 7.862892340741134108e-04 7.582546940366940904e-04 1.635126025704501718e+00 1.833451692941117500e+14 4.410139201197168186e-14 1.674622123279222632e-07
7.862892340741134108e-04 8.466635113189044208e-04 8.164763726965088616e-04 1.518527695097017016e+00 1.974231085596674688e+14 4.573219663287010485e-14 1.869885882879125028e-07
8.466635113189044208e-04 9.116735551427985898e-04 8.791685332308514511e-04 1.410243812725774371e+00 2.125820055331775625e+14 4.728423113620080188e-14 2.081794641483886215e-07
9.116735551427985898e-04 9.816753173311734866e-04 9.466744362369859840e-04 1.309681488031252172e+00 2.289048602577836875e+14 4.873556270433536157e-14 2.310447229035724620e-07
9.816753173311734866e-04 1.057052081000982562e-03 1.019363699166078024e-03 1.216290108570958095e+00 2.464810458355463750e+14 5.006325742781125077e-14 2.555628289748110784e-07
1.057052081000982562e-03 1.138216559204330682e-03 1.097634320102656730e-03 1.129558325231709182e+00 2.654067977751417500e+14 5.124374653938429280e-14 2.816747848930766491e-07
1.138216559204330682e-03 1.225613154670797617e-03 1.181914856937564149e-03 1.049011252421796492e+00 2.857857409135365625e+14 5.225355448993543373e-14 3.092797240177948706e-07
1.225613154670797617e-03 1.319720393061374385e-03 1.272666773866086001e-03 9.742078679131624952e-01 3.077294567967115625e+14 5.307043071898305050e-14 3.382335916913146568e-07
1.319720393061374385e-03 1.421053543056889417e-03 1.370386968059131901e-03 9.047385980968433161e-01 3.313580946260349375e+14 5.367370259326627935e-14 3.683445042382326300e-07
1.421053543056889417e-03 1.530167437626786401e-03 1.475610490341837909e-03 8.402230754301445170e-01 3.568010291154215000e+14 5.404555932311823963e-14 3.993752697966964369e-07
1.530167437626786401e-03 1.647659511925646724e-03 1.588913474776216563e-03 7.803080557968221642e-01 3.841975688612657500e+14 5.417193076319797637e-14 4.310463598943766487e-07
1.647659511925646724e-03 1.774173074450960137e-03 1.710916293188303322e-03 7.246654843771165311e-01 4.136977191037123125e+14 5.404364903589656198e-14 4.630446238454128218e-07
1.774173074450960137e-03 1.910400829372818285e-03 1.842286951911889211e-03 6.729906994376304574e-01 4.454630030556363125e+14 5.365700222781933010e-14 4.950318028164331194e-07
1.910400829372818285e-03 2.057088669321495682e-03 1.983744749347157200e-03 6.250007642061963242e-01 4.796673462963868750e+14 5.301509560024486594e-14 5.266653642467814692e-07
2.057088669321495682e-03 2.215039759399661454e-03 2.136064214360578785e-03 5.804329176981899430e-01 5.164980290726452500e+14 5.212721302994767594e-14 5.576070159145814951e-07
2.215039759399661454e-03 2.385118934780591348e-03 2.300079347090126618e-03 5.390431360120466753e-01 5.561567117205628750e+14 5.101010405332109848e-14 5.875548924449702843e-07
2.385118934780591348e-03 2.568257435970687941e-03 2.476688185375639645e-03 5.006047962165877108e-01 5.988605388237115000e+14 4.968600045648902454e-14 6.162469609365086502e-07
2.568257435970687941e-03 2.765458007663461164e-03 2.666857721817074769e-03 4.649074355144942050e-01 6.448433281524780000e+14 4.818291341810545154e-14 6.434907701094001691e-07
2.765458007663461164e-03 2.977800389102911848e-03 2.871629198383186289e-03 4.317555988879313023e-01 6.943568508947482500e+14 4.653314506403068492e-14 6.691757372712880912e-07
2.977800389102911848e-03 3.206447226017885253e-03 3.092123807560398334e-03 4.009677689167964743e-01 7.476722101875698750e+14 4.477083984433315144e-14 6.932686074820870444e-07
3.206447226017885253e-03 3.452650436497230104e-03 3.329548831257557462e-03 3.723753719099891502e-01 8.050813254977186250e+14 4.293053140174767283e-14 7.158154568636078410e-07
3.452650436497230104e-03 3.717758065661061050e-03 3.585204251079145577e-03 3.458218549079346005e-01 8.668985309786490000e+14 4.104549676399647256e-14 7.369344139078459845e-07
3.717758065661061050e-03 4.003221666659721734e-03 3.860489866160391609e-03 3.211618285026450192e-01 9.334622965553672500e+14 3.914607590558580300e-14 7.567981639061537366e-07
4.003221666659721734e-03 4.310604248413962142e-03 4.156912957536841938e-03 2.982602707819662635e-01 1.005137081160748500e+15 3.725823274014023094e-14 7.756085736936207816e-07
4.310604248413962142e-03 4.641588833612777208e-03 4.476096541013370109e-03 2.769917880393409360e-01 1.082315328270384250e+15 3.540312752303831150e-14 7.935795967402478277e-07
4.641588833612777208e-03 4.997987673826893330e-03 4.819788253719835269e-03 2.572399282012259314e-01 1.165419614662181500e+15 3.359674387968508298e-14 8.109135673200736557e-07
4.997987673826893330e-03 5.381752172193695130e-03 5.189869923010294664e-03 2.388965432129469824e-01 1.254904964165897500e+15 3.185019033030622328e-14 8.277857082499640528e-07
5.381752172193695130e-03 5.794983568003633789e-03 5.588367870098664460e-03 2.218611968918418331e-01 1.351261339071157750e+15 3.017035677342624658e-14 8.443351159962052068e-07
5.794983568003633789e-03 6.239944441689813069e-03 6.017464004846723863e-03 2.060406150054874819e-01 1.455016322835260750e+15 2.856079725060626196e-14 8.606632248037693373e-07
6.239944441689813069e-03 6.719071103214417987e-03 6.479507772452115094e-03 1.913481745640062404e-01 1.566738008779482750e+15 2.702200374448154741e-14 8.768170456723011810e-07
6.719071103214417987e-03 7.234986931682557167e-03 6.977029017448488010e-03 1.777034295301548050e-01 1.687038110590475250e+15 2.555373561254734878e-14 8.928414527378335318e-07
7.234986931682557167e-03 7.790516739222391566e-03 7.512751835452474367e-03 1.650316703502998084e-01 1.816575311657780750e+15 2.415376788143302264e-14 9.087268301140686568e-07
7.790516739222391566e-03 8.388702237778593307e-03 8.089609488500492870e-03 1.532635148945641346e-01 1.956058871586227000e+15 2.281952882263726029e-14 9.244504736250308178e-07
8.388702237778593307e-03 9.032818693504984092e-03 8.710760465641788700e-03 1.423345285664050219e-01 2.106252509630045750e+15 2.154820278494458534e-14 9.399755223733068343e-07
9.032818693504984092e-03 9.726392859944848340e-03 9.379605776724916216e-03 1.321848715015951359e-01 2.267978586311840000e+15 2.033684027509207278e-14 9.552509587399270754e-07
9.726392859944848340e-03 1.047322228818894398e-02 1.009980757406689703e-02 1.227589709249039263e-01 2.442122606122153500e+15 1.918257510263415516e-14 9.702182193063065556e-07
1.047322228818894398e-02 1.127739611974090152e-02 1.087530920396492275e-02 1.140052168705217861e-01 2.629638065953428000e+15 1.808265553034602307e-14 9.848117958470913811e-07
1.127739611974090152e-02 1.214331747593790437e-02 1.171035679783940381e-02 1.058756796001943529e-01 2.831551675815167000e+15 1.703442787852058503e-14 9.989576994594209933e-07
1.214331747593790437e-02 1.307572756651619560e-02 1.260952252122704911e-02 9.832584717183660838e-02 3.048968980415450000e+15 1.603536190472277057e-14 1.012574128332841609e-06
1.307572756651619560e-02 1.407973164932395209e-02 1.357772960792007384e-02 9.131438172172658130e-02 3.283080412388861500e+15 1.508303381505212258e-14 1.025569931878541149e-06
1.407973164932395209e-02 1.516082698331959293e-02 1.462027931632177251e-02 8.480289312584261829e-02 3.535167810314269000e+15 1.417518835567550810e-14 1.037848417017706186e-06
1.516082698331959293e-02 1.632493292790760872e-02 1.574287995561359996e-02 7.875572880106346263e-02 3.806611437210798000e+15 1.330959713894924880e-14 1.049297198079304577e-06
1.632493292790760872e-02 1.757842335341583406e-02 1.695167814066172313e-02 7.313977849532272979e-02 4.098897537940611500e+15 1.248419979157289442e-14 1.059797345247474233e-06
1.757842335341583406e-02 1.892816154017244387e-02 1.825329244679414070e-02 6.792429299787822172e-02 4.413626476897812500e+15 1.169725033756379996e-14 1.069238075498879976e-06
1.892816154017244387e-02 2.038153775726666075e-02 1.965484964871955231e-02 6.308071577707409505e-02 4.752521500540041000e+15 1.094678623706630639e-14 1.077471477804855402e-06
2.038153775726666075e-02 2.194650972674982645e-02 2.116402374200824360e-02 5.858252662375602882e-02 5.117438172740573000e+15 1.023106266806503676e-14 1.084347303942049612e-06
2.194650972674982645e-02 2.363164619483147655e-02 2.278907796079065323e-02 5.440509644423486418e-02 5.510374534622631000e+15 9.548482929103291913e-15 1.089709028650293719e-06
2.363164619483147655e-02 2.544617384863763834e-02 2.453891002173455571e-02 5.052555240774150858e-02 5.933482044504394000e+15 8.897535673077053534e-15 1.093388307142501460e-06
2.544617384863763834e-02 2.740002783541621231e-02 2.642310084202692533e-02 4.692265271001001825e-02 6.389077357854605000e+15 8.276770927883375376e-15 1.095201769809255990e-06
2.740002783541621231e-02 2.950390616079903022e-02 2.845196699810761953e-02 4.357667026727769788e-02 6.879655011757935000e+15 7.684904246132897269e-15 1.094964845055357579e-06
2.950390616079903022e-02 3.176932826396933890e-02 3.063661721238418456e-02 4.046928470388772014e-02 7.407901083341860000e+15 7.120698616029723976e-15 1.092478337125200789e-06
3.176932826396933890e-02 3.420869809045337662e-02 3.298901317721135429e-02 3.758348204209028404e-02 7.976707896949466000e+15 6.583058492855060772e-15 1.087543050263175740e-06
3.420869809045337662e-02 3.683537200788066651e-02 3.552203504916702503e-02 3.490346154481023533e-02 8.589189860584928000e+15 6.070966789892858397e-15 1.079953645230784204e-06
3.683537200788066651e-02 3.966373193657472818e-02 3.824955197222769387e-02 3.241454920131429246e-02 9.248700518341454000e+15 5.583504249339583137e-15 1.069504515681550934e-06
