# M = 1.00e+08
# logmdot = -1.65
# L2500 = 6.1748e-06
# gamma = 0.700
# dist = 10 Mpc
# 1: E_lo [keV]
# 2: E_hi [keV]
# 3: E_mid [keV]
# 4: wave_mid [micron]
# 5: nu_mid [micron]
# 6: Flux density [photons cm-2 s-1 Hz-1]
# 7: Lnu [Lsun Hz-1]
1.000000000000000082e-05 1.076783802484443460e-05 1.038391901242221855e-05 1.194001978298162072e+02 2.510820446271797363e+12 4.398229931852534930e-14 2.287118364780071197e-09
1.076783802484443460e-05 1.159463357292854477e-05 1.118123579888648968e-05 1.108859527365906388e+02 2.703610787492229980e+12 4.732194180214138308e-14 2.649730974423530397e-09
1.159463357292854477e-05 1.248491362707178613e-05 1.203977360000016460e-05 1.029788454105138413e+02 2.911204304193840820e+12 5.091982634277322672e-14 3.070115069316717280e-09
1.248491362707178613e-05 1.344355276904817373e-05 1.296423319805997993e-05 9.563558178801794440e+01 3.134737640478918457e+12 5.478564410094211862e-14 3.556829320388330982e-09
1.344355276904817373e-05 1.447579986955596004e-05 1.395967631930206689e-05 8.881595503884793175e+01 3.375434716305998535e+12 5.893717844274600196e-14 4.120160253134345792e-09
1.447579986955596004e-05 1.558730682754424590e-05 1.503155334855010213e-05 8.248262542018612464e+01 3.634613428861967773e+12 6.340914809939303471e-14 4.773151291440545337e-09
1.558730682754424590e-05 1.678415951625481658e-05 1.618573317189952955e-05 7.660091582904161100e+01 3.913692868491006348e+12 6.820305302420437463e-14 5.528223737642226174e-09
1.678415951625481658e-05 1.807291110541828282e-05 1.742853531083654801e-05 7.113862193348545304e+01 4.214201088689990234e+12 7.336247058769058228e-14 6.403011151016638632e-09
1.807291110541828282e-05 1.946061794205562184e-05 1.876676452373695063e-05 6.606583584313646895e+01 4.537783472713684570e+12 7.890514339511255732e-14 7.415563142777745196e-09
1.946061794205562184e-05 2.095487818634363467e-05 2.020774806419962656e-05 6.135478235343435927e+01 4.886211742599703125e+12 8.485015658302304716e-14 8.586575362295345494e-09
2.095487818634363467e-05 2.256387341408937170e-05 2.175937580021650318e-05 5.697966686708294048e+01 5.261393659940641602e+12 9.124981811842621983e-14 9.943238564425369004e-09
2.256387341408937170e-05 2.429641341360079312e-05 2.343014341384508072e-05 5.291653415998166565e+01 5.665383471518420898e+12 9.810504584587996101e-14 1.151107042745296540e-08
2.429641341360079312e-05 2.616198442223104434e-05 2.522919891791591704e-05 4.914313721834260207e+01 6.100393156994115234e+12 1.054737900150958474e-13 1.332592706383591965e-08
2.616198442223104434e-05 2.817080106670871752e-05 2.716639274446988093e-05 4.563881542883130038e+01 6.568804540238195312e+12 1.133861317168774921e-13 1.542557399053398179e-08
2.817080106670871752e-05 3.033386229164336125e-05 2.925233167917603769e-05 4.238438145478205854e+01 7.073182330614750977e+12 1.218590146333747659e-13 1.785120634888481588e-08
3.033386229164336125e-05 3.266301158243521522e-05 3.149843693703928654e-05 3.936201617909686234e+01 7.616288165625122070e+12 1.309694693136561292e-13 2.065896167470790980e-08
3.266301158243521522e-05 3.517100181232792907e-05 3.391700669738157553e-05 3.655517113860521050e+01 8.201095731799077148e+12 1.407185636586493711e-13 2.390112426293374062e-08
3.517100181232792907e-05 3.787156506866571791e-05 3.652128344049682010e-05 3.394847791568017925e+01 8.830807046625539062e+12 1.511775647223523603e-13 2.764921435463187357e-08
3.787156506866571791e-05 4.077948784067480885e-05 3.932552645467026338e-05 3.152766399099941808e+01 9.508869990671855469e+12 1.623954284709076117e-13 3.198142154256772745e-08
4.077948784067480885e-05 4.391069198044994867e-05 4.234508991056238215e-05 2.927947459671685948e+01 1.023899718588584570e+13 1.743867673503051680e-13 3.697992325776026816e-08
4.391069198044994867e-05 4.728232188043194804e-05 4.559650693044094497e-05 2.719160014216494048e+01 1.102518632344566211e+13 1.872567839371718613e-13 4.275811517318859658e-08
4.728232188043194804e-05 5.091283834470491183e-05 4.909758011256842993e-05 2.525260881471869112e+01 1.187174205245928906e+13 2.010070803906482010e-13 4.942206210059444413e-08
5.091283834470491183e-05 5.482211966808713048e-05 5.286747900639602454e-05 2.345188398678899944e+01 1.278329954936158594e+13 2.157215365376187688e-13 5.711254662521511967e-08
5.482211966808713048e-05 5.903157047645993293e-05 5.692684507227352832e-05 2.177956608622727330e+01 1.376484989705922266e+13 2.314757934290806143e-13 6.598908645101803575e-08
5.903157047645993293e-05 6.356423892427092825e-05 6.129790470036543737e-05 2.022649861186219411e+01 1.482176741278301758e+13 2.482706131753123539e-13 7.621147473704081440e-08
6.356423892427092825e-05 6.844494289090597501e-05 6.600459090758844486e-05 1.878417799858615567e+01 1.595983907427648633e+13 2.662521581593519013e-13 8.800689514404646748e-08
6.844494289090597501e-05 7.370040586690031204e-05 7.107267437890314352e-05 1.744470705748524608e+01 1.718529620543922070e+13 2.854134357963077889e-13 1.015842761736503306e-07
7.370040586690031204e-05 7.935940327400752773e-05 7.652990457045392666e-05 1.620075173608240959e+01 1.850484859491430078e+13 3.058448096451534186e-13 1.172145988437110614e-07
7.935940327400752773e-05 8.545292002028221517e-05 8.240616164714487145e-05 1.504550096194122943e+01 1.992572123443070703e+13 3.276564756309885821e-13 1.352159302958215407e-07
8.545292002028221517e-05 9.201432015283831224e-05 8.873362008656027048e-05 1.397262934976086868e+01 2.145569387805529297e+13 3.508221772222728254e-13 1.558922978098472175e-07
9.201432015283831224e-05 9.907952953719418199e-05 9.554692484501625389e-05 1.297626256777088827e+01 2.310314363895455078e+13 3.755173154176055294e-13 1.796784947026356355e-07
9.907952953719418199e-05 1.066872325634295773e-04 1.028833810503118796e-04 1.205094517379533769e+01 2.487709085689774609e+13 4.017390350600809501e-13 2.069849073019031131e-07
1.066872325634295773e-04 1.148790839561917123e-04 1.107831582598106516e-04 1.119161074487787211e+01 2.678724848764131250e+13 4.295569948508496333e-13 2.383109273134016037e-07
1.148790839561917123e-04 1.236999368482775941e-04 1.192895104022346532e-04 1.039355413691744623e+01 2.884407528461803516e+13 4.591139906662663676e-13 2.742661451675609300e-07
1.236999368482775941e-04 1.331980883665737233e-04 1.284490126074256723e-04 9.652405722426916412e+00 3.105883306411853125e+13 4.903350110243310498e-13 3.154082822692763316e-07
1.331980883665737233e-04 1.434255440750181688e-04 1.383118162207959325e-04 8.964107465357582072e+00 3.344364836751108594e+13 5.234117706794037259e-13 3.625368761917178733e-07
1.434255440750181688e-04 1.544383027224978540e-04 1.489319233987579979e-04 8.324890701991311204e+00 3.601157885812119531e+13 5.583247387562720698e-13 4.164128173262020850e-07
1.544383027224978540e-04 1.662966628547748072e-04 1.603674827886363442e-04 7.731255506243177145e+00 3.877668481631609375e+13 5.950904907879890353e-13 4.779128875268853699e-07
1.662966628547748072e-04 1.790655529692375457e-04 1.726811079120061764e-04 7.179951526392765793e+00 4.175410612425357812e+13 6.338613448360214563e-13 5.481362360185061228e-07
1.790655529692375457e-04 1.928148870201951159e-04 1.859402199947163443e-04 6.667960188318772019e+00 4.496014516181271094e+13 6.744705724347402359e-13 6.280377737313230312e-07
1.928148870201951159e-04 2.076199472212138242e-04 2.002174171207044700e-04 6.192478167793677990e+00 4.841235606758921094e+13 7.170854521200441450e-13 7.189888996707000481e-07
2.076199472212138242e-04 2.235617962404778448e-04 2.155908717308458345e-04 5.750902041343763038e+00 5.212964085368947656e+13 7.616322178859852382e-13 8.222901624574996922e-07
2.235617962404778448e-04 2.407277210460738285e-04 2.321447586432758502e-04 5.340814031632736381e+00 5.613235290058408594e+13 8.079955908065026009e-13 9.393280526963598237e-07
2.407277210460738285e-04 2.592117108314054784e-04 2.499697159387396670e-04 4.959968769320248327e+00 6.044240839868954688e+13 8.562994312614327744e-13 1.071920240004286625e-06
2.592117108314054784e-04 2.791149716375385050e-04 2.691633412344719917e-04 4.606280998911953084e+00 6.508340634685851562e+13 9.062180517880334253e-13 1.221512846836308754e-06
2.791149716375385050e-04 3.005464804902059509e-04 2.898307260638722550e-04 4.277814161286574546e+00 7.008075776481040625e+13 9.578003499319686540e-13 1.390172954860120224e-06
3.005464804902059509e-04 3.236235820855605668e-04 3.120850312878832317e-04 3.972769790385457078e+00 7.546182482698367188e+13 1.010850178447572046e-12 1.579825611089616661e-06
3.236235820855605668e-04 3.484726312917255531e-04 3.360481066886430871e-04 3.689477666007941359e+00 8.125607067961439062e+13 1.065013073772453349e-12 1.792279804133451929e-06
3.484726312917255531e-04 3.752296849840637007e-04 3.618511581378946540e-04 3.426386668795798673e+00 8.749522076133978125e+13 1.120282098099231595e-12 2.030050221810593171e-06
3.752296849840637007e-04 4.040412470021791298e-04 3.896354659931214152e-04 3.182056287334712685e+00 9.421343651061115625e+13 1.176072821066845924e-12 2.294785587958294487e-06
4.040412470021791298e-04 4.350650703075626649e-04 4.195531586548708974e-04 2.955148730871337559e+00 1.014475024110224688e+14 1.232183828744978730e-12 2.588879991154888708e-06
4.350650703075626649e-04 4.684710207339385269e-04 4.517680455207505959e-04 2.744421604460411501e+00 1.092370273986904531e+14 1.288175816211222635e-12 2.914339011462229209e-06
4.684710207339385269e-04 5.044420070596583247e-04 4.864565138967983987e-04 2.548721106435908101e+00 1.176246617344591094e+14 1.343346549012998393e-12 3.272513948012049673e-06
5.044420070596583247e-04 5.431749824945827617e-04 5.238084947771204890e-04 2.366975710960077084e+00 1.266563305283771406e+14 1.397400173170641995e-12 3.665580395077797258e-06
5.431749824945827617e-04 5.848820230649372232e-04 5.640285027797599382e-04 2.198190301060249929e+00 1.363814851950722969e+14 1.449424797457058219e-12 4.093984155832249166e-06
5.848820230649372232e-04 6.297914888006564058e-04 6.073367559327968145e-04 2.041440720029785272e+00 1.468533742168256250e+14 1.498816732316564986e-12 4.558558339979372139e-06
6.297914888006564058e-04 6.781492740831088174e-04 6.539703814418826658e-04 1.895868711360264358e+00 1.581293346968642812e+14 1.544842943208798901e-12 5.059316302916798017e-06
6.781492740831088174e-04 7.302201539992748784e-04 7.041847140411919021e-04 1.760677219499366952e+00 1.702711062992246562e+14 1.586414899779257992e-12 5.594390692948254097e-06
7.302201539992748784e-04 7.862892340741134108e-04 7.582546940366940904e-04 1.635126025704501718e+00 1.833451692941117500e+14 1.622890996748665564e-12 6.162456654629483935e-06
7.862892340741134108e-04 8.466635113189044208e-04 8.164763726965088616e-04 1.518527695097017016e+00 1.974231085596674688e+14 1.653105218605281235e-12 6.759172615299388762e-06
8.466635113189044208e-04 9.116735551427985898e-04 8.791685332308514511e-04 1.410243812725774371e+00 2.125820055331775625e+14 1.676166525481543243e-12 7.379700181506450701e-06
9.116735551427985898e-04 9.816753173311734866e-04 9.466744362369859840e-04 1.309681488031252172e+00 2.289048602577836875e+14 1.691184478966509991e-12 8.017538479901062883e-06
9.816753173311734866e-04 1.057052081000982562e-03 1.019363699166078024e-03 1.216290108570958095e+00 2.464810458355463750e+14 1.697052811498602682e-12 8.663112224601424299e-06
1.057052081000982562e-03 1.138216559204330682e-03 1.097634320102656730e-03 1.129558325231709182e+00 2.654067977751417500e+14 1.693134554706444910e-12 9.306761189395720363e-06
1.138216559204330682e-03 1.225613154670797617e-03 1.181914856937564149e-03 1.049011252421796492e+00 2.857857409135365625e+14 1.678576871530852894e-12 9.935205301099836212e-06
1.225613154670797617e-03 1.319720393061374385e-03 1.272666773866086001e-03 9.742078679131624952e-01 3.077294567967115625e+14 1.652897417231709056e-12 1.053440536572851543e-05
1.319720393061374385e-03 1.421053543056889417e-03 1.370386968059131901e-03 9.047385980968433161e-01 3.313580946260349375e+14 1.615814266685160896e-12 1.108878792121708115e-05
1.421053543056889417e-03 1.530167437626786401e-03 1.475610490341837909e-03 8.402230754301445170e-01 3.568010291154215000e+14 1.567237541335934058e-12 1.158126446919407404e-05
1.530167437626786401e-03 1.647659511925646724e-03 1.588913474776216563e-03 7.803080557968221642e-01 3.841975688612657500e+14 1.507522239329290640e-12 1.199536299644249804e-05
1.647659511925646724e-03 1.774173074450960137e-03 1.710916293188303322e-03 7.246654843771165311e-01 4.136977191037123125e+14 1.437277824812005098e-12 1.231456020501831049e-05
1.774173074450960137e-03 1.910400829372818285e-03 1.842286951911889211e-03 6.729906994376304574e-01 4.454630030556363125e+14 1.357567029590986836e-12 1.252471860521024137e-05
1.910400829372818285e-03 2.057088669321495682e-03 1.983744749347157200e-03 6.250007642061963242e-01 4.796673462963868750e+14 1.269734571857334965e-12 1.261386428172140777e-05
2.057088669321495682e-03 2.215039759399661454e-03 2.136064214360578785e-03 5.804329176981899430e-01 5.164980290726452500e+14 1.175568161254798897e-12 1.257510264408121686e-05
2.215039759399661454e-03 2.385118934780591348e-03 2.300079347090126618e-03 5.390431360120466753e-01 5.561567117205628750e+14 1.077014200137744427e-12 1.240548268362997571e-05
2.385118934780591348e-03 2.568257435970687941e-03 2.476688185375639645e-03 5.006047962165877108e-01 5.988605388237115000e+14 9.762429655101530440e-13 1.210817443754835969e-05
2.568257435970687941e-03 2.765458007663461164e-03 2.666857721817074769e-03 4.649074355144942050e-01 6.448433281524780000e+14 8.755450751277881204e-13 1.169304914733041250e-05
2.765458007663461164e-03 2.977800389102911848e-03 2.871629198383186289e-03 4.317555988879313023e-01 6.943568508947482500e+14 7.769992050133451603e-13 1.117373466071438187e-05
2.977800389102911848e-03 3.206447226017885253e-03 3.092123807560398334e-03 4.009677689167964743e-01 7.476722101875698750e+14 6.826795589810582860e-13 1.057117330961100738e-05
3.206447226017885253e-03 3.452650436497230104e-03 3.329548831257557462e-03 3.723753719099891502e-01 8.050813254977186250e+14 5.941372520396851771e-13 9.906530728179209741e-06
3.452650436497230104e-03 3.717758065661061050e-03 3.585204251079145577e-03 3.458218549079346005e-01 8.668985309786490000e+14 5.126379937372661217e-13 9.203947064737215685e-06
3.717758065661061050e-03 4.003221666659721734e-03 3.860489866160391609e-03 3.211618285026450192e-01 9.334622965553672500e+14 4.390182125595999782e-13 8.487394189593799990e-06
4.003221666659721734e-03 4.310604248413962142e-03 4.156912957536841938e-03 2.982602707819662635e-01 1.005137081160748500e+15 3.735405596391552733e-13 7.776033358831599849e-06
4.310604248413962142e-03 4.641588833612777208e-03 4.476096541013370109e-03 2.769917880393409360e-01 1.082315328270384250e+15 3.162210862778273783e-13 7.088260831357901353e-06
4.641588833612777208e-03 4.997987673826893330e-03 4.819788253719835269e-03 2.572399282012259314e-01 1.165419614662181500e+15 2.666196618220940708e-13 6.435311167656302716e-06
4.997987673826893330e-03 5.381752172193695130e-03 5.189869923010294664e-03 2.388965432129469824e-01 1.254904964165897500e+15 2.241298148832893184e-13 5.825128692451150748e-06
5.381752172193695130e-03 5.794983568003633789e-03 5.588367870098664460e-03 2.218611968918418331e-01 1.351261339071157750e+15 1.880154931518403640e-13 5.261723764541843771e-06
5.794983568003633789e-03 6.239944441689813069e-03 6.017464004846723863e-03 2.060406150054874819e-01 1.455016322835260750e+15 1.574602267123311129e-13 4.744973514270187998e-06
6.239944441689813069e-03 6.719071103214417987e-03 6.479507772452115094e-03 1.913481745640062404e-01 1.566738008779482750e+15 1.317070560183402473e-13 4.273665004423714628e-06
6.719071103214417987e-03 7.234986931682557167e-03 6.977029017448488010e-03 1.777034295301548050e-01 1.687038110590475250e+15 1.100478255570993037e-13 3.845044886227715505e-06
7.234986931682557167e-03 7.790516739222391566e-03 7.512751835452474367e-03 1.650316703502998084e-01 1.816575311657780750e+15 9.186070439791669914e-14 3.456035808960988429e-06
7.790516739222391566e-03 8.388702237778593307e-03 8.089609488500492870e-03 1.532635148945641346e-01 1.956058871586227000e+15 7.660775319815622565e-14 3.103485364567676263e-06
8.388702237778593307e-03 9.032818693504984092e-03 8.710760465641788700e-03 1.423345285664050219e-01 2.106252509630045750e+15 6.383490009693577627e-14 2.784605480239328696e-06
9.032818693504984092e-03 9.726392859944848340e-03 9.379605776724916216e-03 1.321848715015951359e-01 2.267978586311840000e+15 5.315318397218295375e-14 2.496682339178061309e-06
9.726392859944848340e-03 1.047322228818894398e-02 1.009980757406689703e-02 1.227589709249039263e-01 2.442122606122153500e+15 4.423350200958883016e-14 2.237246528362709412e-06
1.047322228818894398e-02 1.127739611974090152e-02 1.087530920396492275e-02 1.140052168705217861e-01 2.629638065953428000e+15 3.679649720961755666e-14 2.003999049645808455e-06
1.127739611974090152e-02 1.214331747593790437e-02 1.171035679783940381e-02 1.058756796001943529e-01 2.831551675815167000e+15 3.060000925063218698e-14 1.794490255994633357e-06
1.214331747593790437e-02 1.307572756651619560e-02 1.260952252122704911e-02 9.832584717183660838e-02 3.048968980415450000e+15 2.544366024877592031e-14 1.606673566276873092e-06
1.307572756651619560e-02 1.407973164932395209e-02 1.357772960792007384e-02 9.131438172172658130e-02 3.283080412388861500e+15 2.115376937487938386e-14 1.438349212949400968e-06
1.407973164932395209e-02 1.516082698331959293e-02 1.462027931632177251e-02 8.480289312584261829e-02 3.535167810314269000e+15 1.758617109444354990e-14 1.287586406177316808e-06
1.516082698331959293e-02 1.632493292790760872e-02 1.574287995561359996e-02 7.875572880106346263e-02 3.806611437210798000e+15 1.462036010496284068e-14 1.152634653993673630e-06
1.632493292790760872e-02 1.757842335341583406e-02 1.695167814066172313e-02 7.313977849532272979e-02 4.098897537940611500e+15 1.215397692407675989e-14 1.031764365628816747e-06
1.757842335341583406e-02 1.892816154017244387e-02 1.825329244679414070e-02 6.792429299787822172e-02 4.413626476897812500e+15 1.010437959369339587e-14 9.236347927149723962e-07
1.892816154017244387e-02 2.038153775726666075e-02 1.965484964871955231e-02 6.308071577707409505e-02 4.752521500540041000e+15 8.400426914498988596e-15 8.268381427883437757e-07
2.038153775726666075e-02 2.194650972674982645e-02 2.116402374200824360e-02 5.858252662375602882e-02 5.117438172740573000e+15 6.983780385446264911e-15 7.401815117328618823e-07
2.194650972674982645e-02 2.363164619483147655e-02 2.278907796079065323e-02 5.440509644423486418e-02 5.510374534622631000e+15 5.806393551701131428e-15 6.626476189113080931e-07
2.363164619483147655e-02 2.544617384863763834e-02 2.453891002173455571e-02 5.052555240774150858e-02 5.933482044504394000e+15 4.827375548221888561e-15 5.932199850103062330e-07
2.544617384863763834e-02 2.740002783541621231e-02 2.642310084202692533e-02 4.692265271001001825e-02 6.389077357854605000e+15 4.013647133898390232e-15 5.310952160856158616e-07
2.740002783541621231e-02 2.950390616079903022e-02 2.845196699810761953e-02 4.357667026727769788e-02 6.879655011757935000e+15 3.337181841826186952e-15 4.754902183973903526e-07
2.950390616079903022e-02 3.176932826396933890e-02 3.063661721238418456e-02 4.046928470388772014e-02 7.407901083341860000e+15 2.774734840002464345e-15 4.257079069664979903e-07
3.176932826396933890e-02 3.420869809045337662e-02 3.298901317721135429e-02 3.758348204209028404e-02 7.976707896949466000e+15 2.307270711711227042e-15 3.811687577014154985e-07
3.420869809045337662e-02 3.683537200788066651e-02 3.552203504916702503e-02 3.490346154481023533e-02 8.589189860584928000e+15 1.918550782857230772e-15 3.412876372436237340e-07
3.683537200788066651e-02 3.966373193657472818e-02 3.824955197222769387e-02 3.241454920131429246e-02 9.248700518341454000e+15 1.595427496544658510e-15 3.055996442017300177e-07
