# M = 1.00e+10
# logmdot = -1.00
# L2500 = 1.6396e-02
# gamma = 1.386
# dist = 10 Mpc
# 1: E_lo [keV]
# 2: E_hi [keV]
# 3: E_mid [keV]
# 4: wave_mid [micron]
# 5: nu_mid [micron]
# 6: Flux density [photons cm-2 s-1 Hz-1]
# 7: Lnu [Lsun Hz-1]
1.000000000000000082e-05 1.076783802484443460e-05 1.038391901242221855e-05 1.194001978298162072e+02 2.510820446271797363e+12 2.903846895299067853e-10 1.510026002653916413e-05
1.076783802484443460e-05 1.159463357292854477e-05 1.118123579888648968e-05 1.108859527365906388e+02 2.703610787492229980e+12 3.123652859175297398e-10 1.749049049785372220e-05
1.159463357292854477e-05 1.248491362707178613e-05 1.203977360000016460e-05 1.029788454105138413e+02 2.911204304193840820e+12 3.359841402957922372e-10 2.025753122624171271e-05
1.248491362707178613e-05 1.344355276904817373e-05 1.296423319805997993e-05 9.563558178801794440e+01 3.134737640478918457e+12 3.613575774018032639e-10 2.346029233642116238e-05
1.344355276904817373e-05 1.447579986955596004e-05 1.395967631930206689e-05 8.881595503884793175e+01 3.375434716305998535e+12 3.886123070520093784e-10 2.716697717299017208e-05
1.447579986955596004e-05 1.558730682754424590e-05 1.503155334855010213e-05 8.248262542018612464e+01 3.634613428861967773e+12 4.178824569291522120e-10 3.145628428622310744e-05
1.558730682754424590e-05 1.678415951625481658e-05 1.618573317189952955e-05 7.660091582904161100e+01 3.913692868491006348e+12 4.493085914952014882e-10 3.641887438893491710e-05
1.678415951625481658e-05 1.807291110541828282e-05 1.742853531083654801e-05 7.113862193348545304e+01 4.214201088689990234e+12 4.830451496580323745e-10 4.215975082256628436e-05
1.807291110541828282e-05 1.946061794205562184e-05 1.876676452373695063e-05 6.606583584313646895e+01 4.537783472713684570e+12 5.192499949041823129e-10 4.879949466434264113e-05
1.946061794205562184e-05 2.095487818634363467e-05 2.020774806419962656e-05 6.135478235343435927e+01 4.886211742599703125e+12 5.580955204910634892e-10 5.647755336039980771e-05
2.095487818634363467e-05 2.256387341408937170e-05 2.175937580021650318e-05 5.697966686708294048e+01 5.261393659940641602e+12 5.997623706122094156e-10 6.535443528471281322e-05
2.256387341408937170e-05 2.429641341360079312e-05 2.343014341384508072e-05 5.291653415998166565e+01 5.665383471518420898e+12 6.444408011421558383e-10 7.561490221334118435e-05
2.429641341360079312e-05 2.616198442223104434e-05 2.522919891791591704e-05 4.914313721834260207e+01 6.100393156994115234e+12 6.923394870503191333e-10 8.747258922359434649e-05
2.616198442223104434e-05 2.817080106670871752e-05 2.716639274446988093e-05 4.563881542883130038e+01 6.568804540238195312e+12 7.436663282949203671e-10 1.011718082068982272e-04
2.817080106670871752e-05 3.033386229164336125e-05 2.925233167917603769e-05 4.238438145478205854e+01 7.073182330614750977e+12 7.986401646193574924e-10 1.169933174006058485e-04
3.033386229164336125e-05 3.266301158243521522e-05 3.149843693703928654e-05 3.936201617909686234e+01 7.616288165625122070e+12 8.575009325053464340e-10 1.352611337091758569e-04
3.266301158243521522e-05 3.517100181232792907e-05 3.391700669738157553e-05 3.655517113860521050e+01 8.201095731799077148e+12 9.204948565623107153e-10 1.563465500078308889e-04
3.517100181232792907e-05 3.787156506866571791e-05 3.652128344049682010e-05 3.394847791568017925e+01 8.830807046625539062e+12 9.878815400263528778e-10 1.806759389684357332e-04
3.787156506866571791e-05 4.077948784067480885e-05 3.932552645467026338e-05 3.152766399099941808e+01 9.508869990671855469e+12 1.059922400668685710e-09 2.087363259998925829e-04
4.077948784067480885e-05 4.391069198044994867e-05 4.234508991056238215e-05 2.927947459671685948e+01 1.023899718588584570e+13 1.136903820176024583e-09 2.410883386415975990e-04
4.391069198044994867e-05 4.728232188043194804e-05 4.559650693044094497e-05 2.719160014216494048e+01 1.102518632344566211e+13 1.219107827094726614e-09 2.783704375535014670e-04
4.728232188043194804e-05 5.091283834470491183e-05 4.909758011256842993e-05 2.525260881471869112e+01 1.187174205245928906e+13 1.306829092582951910e-09 3.213130027209876519e-04
5.091283834470491183e-05 5.482211966808713048e-05 5.286747900639602454e-05 2.345188398678899944e+01 1.278329954936158594e+13 1.400376299393320651e-09 3.707513768705241559e-04
5.482211966808713048e-05 5.903157047645993293e-05 5.692684507227352832e-05 2.177956608622727330e+01 1.376484989705922266e+13 1.500047463923680015e-09 4.276333188498933910e-04
5.903157047645993293e-05 6.356423892427092825e-05 6.129790470036543737e-05 2.022649861186219411e+01 1.482176741278301758e+13 1.606160327542259856e-09 4.930420304705485698e-04
6.356423892427092825e-05 6.844494289090597501e-05 6.600459090758844486e-05 1.878417799858615567e+01 1.595983907427648633e+13 1.719045882119866445e-09 5.682128240439732626e-04
6.844494289090597501e-05 7.370040586690031204e-05 7.107267437890314352e-05 1.744470705748524608e+01 1.718529620543922070e+13 1.838967053310480209e-09 6.545246774964628717e-04
7.370040586690031204e-05 7.935940327400752773e-05 7.652990457045392666e-05 1.620075173608240959e+01 1.850484859491430078e+13 1.966241112520984919e-09 7.535591776154622681e-04
7.935940327400752773e-05 8.545292002028221517e-05 8.240616164714487145e-05 1.504550096194122943e+01 1.992572123443070703e+13 2.101162326712697029e-09 8.670990498871130768e-04
8.545292002028221517e-05 9.201432015283831224e-05 8.873362008656027048e-05 1.397262934976086868e+01 2.145569387805529297e+13 2.243993509828486938e-09 9.971470654658986382e-04
9.201432015283831224e-05 9.907952953719418199e-05 9.554692484501625389e-05 1.297626256777088827e+01 2.310314363895455078e+13 2.394983392469441778e-09 1.145957837704934031e-03
9.907952953719418199e-05 1.066872325634295773e-04 1.028833810503118796e-04 1.205094517379533769e+01 2.487709085689774609e+13 2.554344815064796920e-09 1.316055395722783104e-03
1.066872325634295773e-04 1.148790839561917123e-04 1.107831582598106516e-04 1.119161074487787211e+01 2.678724848764131250e+13 2.722249991991309464e-09 1.510258074590554653e-03
1.148790839561917123e-04 1.236999368482775941e-04 1.192895104022346532e-04 1.039355413691744623e+01 2.884407528461803516e+13 2.898822886529777127e-09 1.731702790102841987e-03
1.236999368482775941e-04 1.331980883665737233e-04 1.284490126074256723e-04 9.652405722426916412e+00 3.105883306411853125e+13 3.084120646131971620e-09 1.983862407205155311e-03
1.331980883665737233e-04 1.434255440750181688e-04 1.383118162207959325e-04 8.964107465357582072e+00 3.344364836751108594e+13 3.278125037228793948e-09 2.270566459023561252e-03
1.434255440750181688e-04 1.544383027224978540e-04 1.489319233987579979e-04 8.324890701991311204e+00 3.601157885812119531e+13 3.480734241786684172e-09 2.596020293162932396e-03
1.544383027224978540e-04 1.662966628547748072e-04 1.603674827886363442e-04 7.731255506243177145e+00 3.877668481631609375e+13 3.691767139543333891e-09 2.964831603005065822e-03
1.662966628547748072e-04 1.790655529692375457e-04 1.726811079120061764e-04 7.179951526392765793e+00 4.175410612425357812e+13 3.910831354277117108e-09 3.381920029831094691e-03
1.790655529692375457e-04 1.928148870201951159e-04 1.859402199947163443e-04 6.667960188318772019e+00 4.496014516181271094e+13 4.137460963415555758e-09 3.852624382089230720e-03
1.928148870201951159e-04 2.076199472212138242e-04 2.002174171207044700e-04 6.192478167793677990e+00 4.841235606758921094e+13 4.371017643242283200e-09 4.382620169555298019e-03
2.076199472212138242e-04 2.235617962404778448e-04 2.155908717308458345e-04 5.750902041343763038e+00 5.212964085368947656e+13 4.610669685991754715e-09 4.977872831660569777e-03
2.235617962404778448e-04 2.407277210460738285e-04 2.321447586432758502e-04 5.340814031632736381e+00 5.613235290058408594e+13 4.855379557881575089e-09 5.644578110450139408e-03
2.407277210460738285e-04 2.592117108314054784e-04 2.499697159387396670e-04 4.959968769320248327e+00 6.044240839868954688e+13 5.103883004210192653e-09 6.389068233722179115e-03
2.592117108314054784e-04 2.791149716375385050e-04 2.691633412344719917e-04 4.606280998911953084e+00 6.508340634685851562e+13 5.354643807823104898e-09 7.217651633161590273e-03
2.791149716375385050e-04 3.005464804902059509e-04 2.898307260638722550e-04 4.277814161286574546e+00 7.008075776481040625e+13 5.605899429615675749e-09 8.136528427110122086e-03
3.005464804902059509e-04 3.236235820855605668e-04 3.120850312878832317e-04 3.972769790385457078e+00 7.546182482698367188e+13 5.855548211074930509e-09 9.151450163498147522e-03
3.236235820855605668e-04 3.484726312917255531e-04 3.360481066886430871e-04 3.689477666007941359e+00 8.125607067961439062e+13 6.101201423234790392e-09 1.026753601538447566e-02
3.484726312917255531e-04 3.752296849840637007e-04 3.618511581378946540e-04 3.426386668795798673e+00 8.749522076133978125e+13 6.340204261955270133e-09 1.148901075018936117e-02
3.752296849840637007e-04 4.040412470021791298e-04 3.896354659931214152e-04 3.182056287334712685e+00 9.421343651061115625e+13 6.569549873605641789e-09 1.281868613854021156e-02
4.040412470021791298e-04 4.350650703075626649e-04 4.195531586548708974e-04 2.955148730871337559e+00 1.014475024110224688e+14 6.785993281219199894e-09 1.425771205239207556e-02
4.350650703075626649e-04 4.684710207339385269e-04 4.517680455207505959e-04 2.744421604460411501e+00 1.092370273986904531e+14 6.985949149749006924e-09 1.580484890570758860e-02
4.684710207339385269e-04 5.044420070596583247e-04 4.864565138967983987e-04 2.548721106435908101e+00 1.176246617344591094e+14 7.165718464998710871e-09 1.745633964777384625e-02
5.044420070596583247e-04 5.431749824945827617e-04 5.238084947771204890e-04 2.366975710960077084e+00 1.266563305283771406e+14 7.321416517352645612e-09 1.920512202980056635e-02
5.431749824945827617e-04 5.848820230649372232e-04 5.640285027797599382e-04 2.198190301060249929e+00 1.363814851950722969e+14 7.449145792967434894e-09 2.104054305155949461e-02
5.848820230649372232e-04 6.297914888006564058e-04 6.073367559327968145e-04 2.041440720029785272e+00 1.468533742168256250e+14 7.545018511257205186e-09 2.294770689317728041e-02
6.297914888006564058e-04 6.781492740831088174e-04 6.539703814418826658e-04 1.895868711360264358e+00 1.581293346968642812e+14 7.605409514965825564e-09 2.490749789069300960e-02
6.781492740831088174e-04 7.302201539992748784e-04 7.041847140411919021e-04 1.760677219499366952e+00 1.702711062992246562e+14 7.626985371629559246e-09 2.689607616786376942e-02
7.302201539992748784e-04 7.862892340741134108e-04 7.582546940366940904e-04 1.635126025704501718e+00 1.833451692941117500e+14 7.606982564709025033e-09 2.888530432509476414e-02
7.862892340741134108e-04 8.466635113189044208e-04 8.164763726965088616e-04 1.518527695097017016e+00 1.974231085596674688e+14 7.543329303286166093e-09 3.084296406611948191e-02
8.466635113189044208e-04 9.116735551427985898e-04 8.791685332308514511e-04 1.410243812725774371e+00 2.125820055331775625e+14 7.434831890732157000e-09 3.273351986178309192e-02
9.116735551427985898e-04 9.816753173311734866e-04 9.466744362369859840e-04 1.309681488031252172e+00 2.289048602577836875e+14 7.281304954929905873e-09 3.451908611159908852e-02
9.816753173311734866e-04 1.057052081000982562e-03 1.019363699166078024e-03 1.216290108570958095e+00 2.464810458355463750e+14 7.083675764629836408e-09 3.616073565647435345e-02
1.057052081000982562e-03 1.138216559204330682e-03 1.097634320102656730e-03 1.129558325231709182e+00 2.654067977751417500e+14 6.844186470998964840e-09 3.762087829595104488e-02
1.138216559204330682e-03 1.225613154670797617e-03 1.181914856937564149e-03 1.049011252421796492e+00 2.857857409135365625e+14 6.566165017029338849e-09 3.886399162976142407e-02
1.225613154670797617e-03 1.319720393061374385e-03 1.272666773866086001e-03 9.742078679131624952e-01 3.077294567967115625e+14 6.254105135650573381e-09 3.985926652917741453e-02
1.319720393061374385e-03 1.421053543056889417e-03 1.370386968059131901e-03 9.047385980968433161e-01 3.313580946260349375e+14 5.913399704187657043e-09 4.058166620081059273e-02
1.421053543056889417e-03 1.530167437626786401e-03 1.475610490341837909e-03 8.402230754301445170e-01 3.568010291154215000e+14 5.550177874788500777e-09 4.101361543713638591e-02
1.530167437626786401e-03 1.647659511925646724e-03 1.588913474776216563e-03 7.803080557968221642e-01 3.841975688612657500e+14 5.170965684199847194e-09 4.114540323579002346e-02
1.647659511925646724e-03 1.774173074450960137e-03 1.710916293188303322e-03 7.246654843771165311e-01 4.136977191037123125e+14 4.782387975932231972e-09 4.097537973291719149e-02
1.774173074450960137e-03 1.910400829372818285e-03 1.842286951911889211e-03 6.729906994376304574e-01 4.454630030556363125e+14 4.390844335721440134e-09 4.050929975867281069e-02
1.910400829372818285e-03 2.057088669321495682e-03 1.983744749347157200e-03 6.250007642061963242e-01 4.796673462963868750e+14 4.002264195777969947e-09 3.975950446973297581e-02
2.057088669321495682e-03 2.215039759399661454e-03 2.136064214360578785e-03 5.804329176981899430e-01 5.164980290726452500e+14 3.621853657392482306e-09 3.874312269136024472e-02
2.215039759399661454e-03 2.385118934780591348e-03 2.300079347090126618e-03 5.390431360120466753e-01 5.561567117205628750e+14 3.254041029387274132e-09 3.748135320474181575e-02
2.385118934780591348e-03 2.568257435970687941e-03 2.476688185375639645e-03 5.006047962165877108e-01 5.988605388237115000e+14 2.902326585888355409e-09 3.599705997195726953e-02
2.568257435970687941e-03 2.765458007663461164e-03 2.666857721817074769e-03 4.649074355144942050e-01 6.448433281524780000e+14 2.569439787260705236e-09 3.431529291528541414e-02
2.765458007663461164e-03 2.977800389102911848e-03 2.871629198383186289e-03 4.317555988879313023e-01 6.943568508947482500e+14 2.257431939214713695e-09 3.246328354090646101e-02
2.977800389102911848e-03 3.206447226017885253e-03 3.092123807560398334e-03 4.009677689167964743e-01 7.476722101875698750e+14 1.967612331447763592e-09 3.046813206610043262e-02
3.206447226017885253e-03 3.452650436497230104e-03 3.329548831257557462e-03 3.723753719099891502e-01 8.050813254977186250e+14 1.700815256263489830e-09 2.835906777648882632e-02
3.452650436497230104e-03 3.717758065661061050e-03 3.585204251079145577e-03 3.458218549079346005e-01 8.668985309786490000e+14 1.457469276986408801e-09 2.616752998752337397e-02
3.717758065661061050e-03 4.003221666659721734e-03 3.860489866160391609e-03 3.211618285026450192e-01 9.334622965553672500e+14 1.237650082743252588e-09 2.392708051855437640e-02
4.003221666659721734e-03 4.310604248413962142e-03 4.156912957536841938e-03 2.982602707819662635e-01 1.005137081160748500e+15 1.041131710353945279e-09 2.167334898911751559e-02
4.310604248413962142e-03 4.641588833612777208e-03 4.476096541013370109e-03 2.769917880393409360e-01 1.082315328270384250e+15 8.674003505742509404e-10 1.944323195664350232e-02
4.641588833612777208e-03 4.997987673826893330e-03 4.819788253719835269e-03 2.572399282012259314e-01 1.165419614662181500e+15 7.156613058244517542e-10 1.727368177634505328e-02
4.997987673826893330e-03 5.381752172193695130e-03 5.189869923010294664e-03 2.388965432129469824e-01 1.254904964165897500e+15 5.848516576427756055e-10 1.520028102256981879e-02
5.381752172193695130e-03 5.794983568003633789e-03 5.588367870098664460e-03 2.218611968918418331e-01 1.351261339071157750e+15 4.736340842962985793e-10 1.325492742784880988e-02
5.794983568003633789e-03 6.239944441689813069e-03 6.017464004846723863e-03 2.060406150054874819e-01 1.455016322835260750e+15 3.804457208253477094e-10 1.146451333536874055e-02
6.239944441689813069e-03 6.719071103214417987e-03 6.479507772452115094e-03 1.913481745640062404e-01 1.566738008779482750e+15 3.035079512592881709e-10 9.848305391326476338e-03
6.719071103214417987e-03 7.234986931682557167e-03 6.977029017448488010e-03 1.777034295301548050e-01 1.687038110590475250e+15 2.409473010981657028e-10 8.418641470177646094e-03
7.234986931682557167e-03 7.790516739222391566e-03 7.512751835452474367e-03 1.650316703502998084e-01 1.816575311657780750e+15 1.907943436771956301e-10 7.178173607718949314e-03
7.790516739222391566e-03 8.388702237778593307e-03 8.089609488500492870e-03 1.532635148945641346e-01 1.956058871586227000e+15 1.511011013056269086e-10 6.121313273071650116e-03
8.388702237778593307e-03 9.032818693504984092e-03 8.710760465641788700e-03 1.423345285664050219e-01 2.106252509630045750e+15 1.200193227111743986e-10 5.235481895462252254e-03
9.032818693504984092e-03 9.726392859944848340e-03 9.379605776724916216e-03 1.321848715015951359e-01 2.267978586311840000e+15 9.585692561590587039e-11 4.502539178055347223e-03
9.726392859944848340e-03 1.047322228818894398e-02 1.009980757406689703e-02 1.227589709249039263e-01 2.442122606122153500e+15 7.712927948882530410e-11 3.901052481308963510e-03
1.047322228818894398e-02 1.127739611974090152e-02 1.087530920396492275e-02 1.140052168705217861e-01 2.629638065953428000e+15 6.258585229068824736e-11 3.408530648918138735e-03
1.127739611974090152e-02 1.214331747593790437e-02 1.171035679783940381e-02 1.058756796001943529e-01 2.831551675815167000e+15 5.121399705806690645e-11 3.003365715954487997e-03
1.214331747593790437e-02 1.307572756651619560e-02 1.260952252122704911e-02 9.832584717183660838e-02 3.048968980415450000e+15 4.222460931647394061e-11 2.666328781780155730e-03
1.307572756651619560e-02 1.407973164932395209e-02 1.357772960792007384e-02 9.131438172172658130e-02 3.283080412388861500e+15 3.502451745619823965e-11 2.381489852909136201e-03
1.407973164932395209e-02 1.516082698331959293e-02 1.462027931632177251e-02 8.480289312584261829e-02 3.535167810314269000e+15 2.917966792762659351e-11 2.136414092562258747e-03
1.516082698331959293e-02 1.632493292790760872e-02 1.574287995561359996e-02 7.875572880106346263e-02 3.806611437210798000e+15 2.437825968639155515e-11 1.921924406571466582e-03
1.632493292790760872e-02 1.757842335341583406e-02 1.695167814066172313e-02 7.313977849532272979e-02 4.098897537940611500e+15 2.039845364544760450e-11 1.731646992319989080e-03
1.757842335341583406e-02 1.892816154017244387e-02 1.825329244679414070e-02 6.792429299787822172e-02 4.413626476897812500e+15 1.707961111383722834e-11 1.561236187190303540e-03
1.892816154017244387e-02 2.038153775726666075e-02 1.965484964871955231e-02 6.308071577707409505e-02 4.752521500540041000e+15 1.430200713123862478e-11 1.407719528412119600e-03
2.038153775726666075e-02 2.194650972674982645e-02 2.116402374200824360e-02 5.858252662375602882e-02 5.117438172740573000e+15 1.197341579487499985e-11 1.269011984129049531e-03
2.194650972674982645e-02 2.363164619483147655e-02 2.278907796079065323e-02 5.440509644423486418e-02 5.510374534622631000e+15 1.002045927107772510e-11 1.143572756006528031e-03
2.363164619483147655e-02 2.544617384863763834e-02 2.453891002173455571e-02 5.052555240774150858e-02 5.933482044504394000e+15 8.383117065564114731e-12 1.030173130367979979e-03
2.544617384863763834e-02 2.740002783541621231e-02 2.642310084202692533e-02 4.692265271001001825e-02 6.389077357854605000e+15 7.011010353234759489e-12 9.277133575300417455e-04
2.740002783541621231e-02 2.950390616079903022e-02 2.845196699810761953e-02 4.357667026727769788e-02 6.879655011757935000e+15 5.862034032241732119e-12 8.352376269428145707e-04
2.950390616079903022e-02 3.176932826396933890e-02 3.063661721238418456e-02 4.046928470388772014e-02 7.407901083341860000e+15 4.900484013143952867e-12 7.518465412559723580e-04
3.176932826396933890e-02 3.420869809045337662e-02 3.298901317721135429e-02 3.758348204209028404e-02 7.976707896949466000e+15 4.096208715022198123e-12 6.767072365048672558e-04
3.420869809045337662e-02 3.683537200788066651e-02 3.552203504916702503e-02 3.490346154481023533e-02 8.589189860584928000e+15 3.423803511707548472e-12 6.090544078050840133e-04
3.683537200788066651e-02 3.966373193657472818e-02 3.824955197222769387e-02 3.241454920131429246e-02 9.248700518341454000e+15 2.861796409145073103e-12 5.481690432856611232e-04
