Dust emission from Draine & Li (2007): ApJ 657, 810-837
================================================================
        10 = grain model
 4.000E-08 4.000E-01 5.000E-06 = a_01 (cm) , sigma_1 , b_C1/0.92
 2.500E-07 4.000E-01 5.000E-06 = a_02 (cm) , sigma_2 , b_C2/0.92
 5.000E-01 1.000E+06 2.000E+00 = Umin , Umax, beta (dN/dU propto U^{-beta})
 7.254E+00 = <U> 
     mmp83 = radfield
 7.573E-24 = power/H (erg s-1)
 band   nu*P_nu(band) j_nu(band)
 (um)   (erg s-1 H-1)(Jy cm2 sr-1 H-1)
1.270E+00  2.180E-26  7.345E-19 COBE-DIRBE
2.220E+00  3.020E-26  1.778E-18 COBE-DIRBE
3.530E+00  1.688E-25  1.580E-17 COBE-DIRBE
4.880E+00  1.031E-25  1.335E-17 COBE-DIRBE
1.229E+01  1.365E-24  4.450E-16 COBE-DIRBE
2.079E+01  2.378E-24  1.311E-15 COBE-DIRBE
5.599E+01  2.739E-24  4.068E-15 COBE-DIRBE
9.770E+01  2.006E-24  5.199E-15 COBE-DIRBE
1.479E+02  1.305E-24  5.120E-15 COBE-DIRBE
2.479E+02  4.406E-25  2.897E-15 COBE-DIRBE
1.200E+01  1.334E-24  4.245E-16 IRAS
2.500E+01  2.572E-24  1.705E-15 IRAS
6.000E+01  2.676E-24  4.259E-15 IRAS
1.000E+02  1.967E-24  5.218E-15 IRAS
3.550E+00  1.946E-25  1.833E-17 SST-IRAC
4.493E+00  7.250E-26  8.640E-18 SST-IRAC
5.731E+00  5.659E-25  8.603E-17 SST-IRAC
7.872E+00  1.561E-24  3.259E-16 SST-IRAC
2.368E+01  2.452E-24  1.540E-15 SST-MIPS
7.142E+01  2.222E-24  4.209E-15 SST-MIPS
1.559E+02  1.138E-24  4.706E-15 SST-MIPS
1.600E+01  1.543E-24  6.551E-16 SST-IRSPU
2.200E+01  2.509E-24  1.464E-15 SST-IRSPU











lambda    nu*dP/dnu     j_nu
 (um)   (erg s-1 H-1)(Jy cm2 sr-1 H-1)
1.000E+04  1.967E-31  5.217E-20
9.908E+03  2.038E-31  5.357E-20
9.817E+03  2.112E-31  5.501E-20
9.727E+03  2.189E-31  5.648E-20
9.638E+03  2.269E-31  5.800E-20
9.550E+03  2.351E-31  5.955E-20
9.462E+03  2.436E-31  6.115E-20
9.376E+03  2.525E-31  6.279E-20
9.290E+03  2.617E-31  6.448E-20
9.204E+03  2.712E-31  6.621E-20
9.120E+03  2.810E-31  6.799E-20
9.036E+03  2.912E-31  6.981E-20
8.954E+03  3.018E-31  7.168E-20
8.872E+03  3.127E-31  7.358E-20
8.790E+03  3.240E-31  7.554E-20
8.710E+03  3.357E-31  7.756E-20
8.630E+03  3.478E-31  7.962E-20
8.551E+03  3.604E-31  8.175E-20
8.472E+03  3.735E-31  8.393E-20
8.395E+03  3.870E-31  8.618E-20
8.318E+03  4.011E-31  8.849E-20
8.241E+03  4.156E-31  9.086E-20
8.166E+03  4.307E-31  9.329E-20
8.091E+03  4.463E-31  9.579E-20
8.017E+03  4.626E-31  9.836E-20
7.943E+03  4.794E-31  1.010E-19
7.870E+03  4.968E-31  1.037E-19
7.798E+03  5.149E-31  1.065E-19
7.727E+03  5.337E-31  1.094E-19
7.656E+03  5.531E-31  1.123E-19
7.586E+03  5.733E-31  1.154E-19
7.516E+03  5.942E-31  1.185E-19
7.447E+03  6.159E-31  1.217E-19
7.379E+03  6.384E-31  1.250E-19
7.311E+03  6.617E-31  1.283E-19
7.244E+03  6.859E-31  1.318E-19
7.178E+03  7.110E-31  1.354E-19
7.112E+03  7.371E-31  1.390E-19
7.047E+03  7.640E-31  1.428E-19
6.982E+03  7.920E-31  1.467E-19
6.918E+03  8.210E-31  1.507E-19
6.855E+03  8.510E-31  1.547E-19
6.792E+03  8.822E-31  1.589E-19
6.730E+03  9.146E-31  1.633E-19
6.668E+03  9.481E-31  1.677E-19
6.607E+03  9.829E-31  1.723E-19
6.546E+03  1.019E-30  1.769E-19
6.486E+03  1.056E-30  1.818E-19
6.427E+03  1.095E-30  1.867E-19
6.368E+03  1.136E-30  1.918E-19
6.310E+03  1.177E-30  1.970E-19
6.252E+03  1.221E-30  2.024E-19
6.194E+03  1.266E-30  2.080E-19
6.138E+03  1.312E-30  2.137E-19
6.081E+03  1.361E-30  2.195E-19
6.026E+03  1.411E-30  2.255E-19
5.970E+03  1.463E-30  2.317E-19
5.916E+03  1.517E-30  2.381E-19
5.861E+03  1.573E-30  2.446E-19
5.808E+03  1.631E-30  2.513E-19
5.754E+03  1.692E-30  2.582E-19
5.702E+03  1.754E-30  2.653E-19
5.649E+03  1.819E-30  2.726E-19
5.598E+03  1.887E-30  2.802E-19
5.546E+03  1.957E-30  2.879E-19
5.495E+03  2.029E-30  2.958E-19
5.445E+03  2.105E-30  3.040E-19
5.395E+03  2.183E-30  3.124E-19
5.346E+03  2.264E-30  3.210E-19
5.297E+03  2.348E-30  3.299E-19
5.248E+03  2.436E-30  3.391E-19
5.200E+03  2.526E-30  3.485E-19
5.152E+03  2.620E-30  3.581E-19
5.105E+03  2.718E-30  3.681E-19
5.058E+03  2.819E-30  3.783E-19
5.012E+03  2.924E-30  3.888E-19
4.966E+03  3.033E-30  3.996E-19
4.920E+03  3.146E-30  4.107E-19
4.875E+03  3.264E-30  4.221E-19
4.831E+03  3.386E-30  4.338E-19
4.786E+03  3.512E-30  4.459E-19
4.742E+03  3.643E-30  4.583E-19
4.699E+03  3.780E-30  4.711E-19
4.656E+03  3.921E-30  4.843E-19
4.613E+03  4.068E-30  4.978E-19
4.571E+03  4.220E-30  5.117E-19
4.529E+03  4.379E-30  5.260E-19
4.487E+03  4.543E-30  5.407E-19
4.446E+03  4.713E-30  5.559E-19
4.406E+03  4.890E-30  5.715E-19
4.365E+03  5.074E-30  5.875E-19
4.325E+03  5.265E-30  6.040E-19
4.285E+03  5.463E-30  6.210E-19
4.246E+03  5.668E-30  6.384E-19
4.207E+03  5.882E-30  6.564E-19
4.169E+03  6.103E-30  6.749E-19
4.130E+03  6.333E-30  6.939E-19
4.093E+03  6.572E-30  7.134E-19
4.055E+03  6.820E-30  7.336E-19
4.018E+03  7.077E-30  7.543E-19
3.981E+03  7.344E-30  7.755E-19
3.945E+03  7.621E-30  7.974E-19
3.908E+03  7.909E-30  8.199E-19
3.873E+03  8.207E-30  8.431E-19
3.837E+03  8.517E-30  8.669E-19
3.802E+03  8.839E-30  8.914E-19
3.767E+03  9.173E-30  9.166E-19
3.733E+03  9.521E-30  9.426E-19
3.698E+03  9.881E-30  9.693E-19
3.664E+03  1.026E-29  9.969E-19
3.631E+03  1.064E-29  1.025E-18
3.597E+03  1.105E-29  1.054E-18
3.565E+03  1.147E-29  1.084E-18
3.532E+03  1.190E-29  1.115E-18
3.499E+03  1.236E-29  1.147E-18
3.467E+03  1.283E-29  1.180E-18
3.436E+03  1.331E-29  1.213E-18
3.404E+03  1.382E-29  1.248E-18
3.373E+03  1.435E-29  1.284E-18
3.342E+03  1.490E-29  1.320E-18
3.311E+03  1.546E-29  1.358E-18
3.281E+03  1.605E-29  1.397E-18
3.251E+03  1.667E-29  1.437E-18
3.221E+03  1.730E-29  1.478E-18
3.192E+03  1.796E-29  1.521E-18
3.162E+03  1.865E-29  1.565E-18
3.133E+03  1.937E-29  1.610E-18
3.105E+03  2.011E-29  1.656E-18
3.076E+03  2.088E-29  1.704E-18
3.048E+03  2.168E-29  1.753E-18
3.020E+03  2.251E-29  1.803E-18
2.992E+03  2.337E-29  1.855E-18
2.965E+03  2.426E-29  1.908E-18
2.938E+03  2.519E-29  1.963E-18
2.911E+03  2.616E-29  2.020E-18
2.884E+03  2.716E-29  2.078E-18
2.858E+03  2.820E-29  2.138E-18
2.831E+03  2.928E-29  2.199E-18
2.805E+03  3.041E-29  2.263E-18
2.780E+03  3.157E-29  2.328E-18
2.754E+03  3.279E-29  2.395E-18
2.729E+03  3.405E-29  2.465E-18
2.704E+03  3.536E-29  2.536E-18
2.679E+03  3.672E-29  2.609E-18
2.655E+03  3.813E-29  2.685E-18
2.630E+03  3.960E-29  2.763E-18
2.606E+03  4.112E-29  2.843E-18
2.582E+03  4.271E-29  2.925E-18
2.559E+03  4.436E-29  3.010E-18
2.535E+03  4.607E-29  3.098E-18
2.512E+03  4.785E-29  3.188E-18
2.489E+03  4.970E-29  3.281E-18
2.466E+03  5.162E-29  3.376E-18
2.443E+03  5.361E-29  3.475E-18
2.421E+03  5.569E-29  3.576E-18
2.399E+03  5.784E-29  3.680E-18
2.377E+03  6.008E-29  3.788E-18
2.355E+03  6.241E-29  3.898E-18
2.333E+03  6.482E-29  4.012E-18
2.312E+03  6.734E-29  4.130E-18
2.291E+03  6.995E-29  4.250E-18
2.270E+03  7.266E-29  4.375E-18
2.249E+03  7.548E-29  4.503E-18
2.228E+03  7.841E-29  4.635E-18
2.208E+03  8.145E-29  4.770E-18
2.188E+03  8.461E-29  4.910E-18
2.168E+03  8.790E-29  5.054E-18
2.148E+03  9.132E-29  5.203E-18
2.128E+03  9.486E-29  5.355E-18
2.109E+03  9.855E-29  5.512E-18
2.089E+03  1.024E-28  5.674E-18
2.070E+03  1.064E-28  5.841E-18
2.051E+03  1.105E-28  6.012E-18
2.032E+03  1.148E-28  6.189E-18
2.014E+03  1.193E-28  6.371E-18
1.995E+03  1.239E-28  6.558E-18
1.977E+03  1.287E-28  6.751E-18
1.959E+03  1.337E-28  6.949E-18
1.941E+03  1.389E-28  7.153E-18
1.923E+03  1.444E-28  7.364E-18
1.905E+03  1.500E-28  7.580E-18
1.888E+03  1.558E-28  7.803E-18
1.871E+03  1.619E-28  8.033E-18
1.854E+03  1.682E-28  8.270E-18
1.837E+03  1.748E-28  8.513E-18
1.820E+03  1.816E-28  8.764E-18
1.803E+03  1.886E-28  9.022E-18
1.786E+03  1.960E-28  9.288E-18
1.770E+03  2.036E-28  9.561E-18
1.754E+03  2.116E-28  9.843E-18
1.738E+03  2.198E-28  1.013E-17
1.722E+03  2.284E-28  1.043E-17
1.706E+03  2.373E-28  1.074E-17
1.690E+03  2.466E-28  1.106E-17
1.675E+03  2.562E-28  1.138E-17
1.660E+03  2.662E-28  1.172E-17
1.644E+03  2.765E-28  1.206E-17
1.629E+03  2.873E-28  1.242E-17
1.614E+03  2.985E-28  1.278E-17
1.600E+03  3.102E-28  1.316E-17
1.585E+03  3.223E-28  1.355E-17
1.570E+03  3.348E-28  1.395E-17
1.556E+03  3.479E-28  1.436E-17
1.542E+03  3.615E-28  1.478E-17
1.528E+03  3.755E-28  1.522E-17
1.514E+03  3.902E-28  1.566E-17
1.500E+03  4.054E-28  1.613E-17
1.486E+03  4.212E-28  1.660E-17
1.472E+03  4.376E-28  1.709E-17
1.459E+03  4.547E-28  1.759E-17
1.445E+03  4.724E-28  1.811E-17
1.432E+03  4.908E-28  1.865E-17
1.419E+03  5.099E-28  1.919E-17
1.406E+03  5.298E-28  1.976E-17
1.393E+03  5.504E-28  2.034E-17
1.380E+03  5.719E-28  2.094E-17
1.368E+03  5.941E-28  2.156E-17
1.355E+03  6.173E-28  2.219E-17
1.343E+03  6.413E-28  2.284E-17
1.330E+03  6.663E-28  2.351E-17
1.318E+03  6.922E-28  2.420E-17
1.306E+03  7.191E-28  2.491E-17
1.294E+03  7.471E-28  2.565E-17
1.282E+03  7.761E-28  2.640E-17
1.271E+03  8.062E-28  2.717E-17
1.259E+03  8.375E-28  2.797E-17
1.247E+03  8.700E-28  2.879E-17
1.236E+03  9.038E-28  2.963E-17
1.225E+03  9.389E-28  3.050E-17
1.213E+03  9.752E-28  3.139E-17
1.202E+03  1.013E-27  3.231E-17
1.191E+03  1.052E-27  3.325E-17
1.180E+03  1.093E-27  3.422E-17
1.169E+03  1.135E-27  3.522E-17
1.159E+03  1.179E-27  3.624E-17
1.148E+03  1.225E-27  3.730E-17
1.138E+03  1.272E-27  3.839E-17
1.127E+03  1.321E-27  3.950E-17
1.117E+03  1.372E-27  4.065E-17
1.107E+03  1.425E-27  4.183E-17
1.096E+03  1.480E-27  4.304E-17
1.086E+03  1.537E-27  4.429E-17
1.076E+03  1.596E-27  4.557E-17
1.067E+03  1.657E-27  4.689E-17
1.057E+03  1.721E-27  4.825E-17
1.047E+03  1.787E-27  4.964E-17
1.038E+03  1.856E-27  5.107E-17
1.028E+03  1.927E-27  5.254E-17
1.019E+03  2.001E-27  5.405E-17
1.009E+03  2.077E-27  5.561E-17
1.000E+03  2.157E-27  5.720E-17
9.908E+02  2.239E-27  5.885E-17
9.817E+02  2.325E-27  6.054E-17
9.727E+02  2.414E-27  6.228E-17
9.638E+02  2.506E-27  6.406E-17
9.550E+02  2.601E-27  6.590E-17
9.462E+02  2.701E-27  6.778E-17
9.376E+02  2.803E-27  6.972E-17
9.290E+02  2.910E-27  7.171E-17
9.204E+02  3.021E-27  7.375E-17
9.120E+02  3.135E-27  7.585E-17
9.036E+02  3.254E-27  7.800E-17
8.954E+02  3.378E-27  8.022E-17
8.872E+02  3.505E-27  8.249E-17
8.790E+02  3.638E-27  8.482E-17
8.710E+02  3.775E-27  8.721E-17
8.630E+02  3.917E-27  8.967E-17
8.551E+02  4.064E-27  9.219E-17
8.472E+02  4.217E-27  9.477E-17
8.395E+02  4.375E-27  9.743E-17
8.318E+02  4.539E-27  1.002E-16
8.241E+02  4.709E-27  1.029E-16
8.166E+02  4.885E-27  1.058E-16
8.091E+02  5.067E-27  1.088E-16
8.017E+02  5.256E-27  1.118E-16
7.943E+02  5.452E-27  1.149E-16
7.870E+02  5.654E-27  1.180E-16
7.798E+02  5.864E-27  1.213E-16
7.727E+02  6.082E-27  1.246E-16
7.656E+02  6.307E-27  1.281E-16
7.586E+02  6.540E-27  1.316E-16
7.516E+02  6.781E-27  1.352E-16
7.447E+02  7.032E-27  1.389E-16
7.379E+02  7.292E-27  1.427E-16
7.311E+02  7.561E-27  1.466E-16
7.244E+02  7.840E-27  1.507E-16
7.178E+02  8.129E-27  1.548E-16
7.112E+02  8.429E-27  1.590E-16
7.047E+02  8.739E-27  1.634E-16
6.982E+02  9.060E-27  1.678E-16
6.918E+02  9.393E-27  1.724E-16
6.855E+02  9.738E-27  1.771E-16
6.792E+02  1.010E-26  1.819E-16
6.730E+02  1.046E-26  1.868E-16
6.668E+02  1.085E-26  1.918E-16
6.607E+02  1.124E-26  1.970E-16
6.546E+02  1.165E-26  2.023E-16
6.486E+02  1.208E-26  2.078E-16
6.427E+02  1.252E-26  2.135E-16
6.368E+02  1.298E-26  2.193E-16
6.310E+02  1.346E-26  2.252E-16
6.252E+02  1.395E-26  2.313E-16
6.194E+02  1.446E-26  2.375E-16
6.138E+02  1.498E-26  2.439E-16
6.081E+02  1.553E-26  2.505E-16
6.026E+02  1.610E-26  2.573E-16
5.970E+02  1.668E-26  2.642E-16
5.916E+02  1.729E-26  2.713E-16
5.861E+02  1.792E-26  2.786E-16
5.808E+02  1.857E-26  2.860E-16
5.754E+02  1.924E-26  2.937E-16
5.702E+02  1.994E-26  3.016E-16
5.649E+02  2.066E-26  3.096E-16
5.598E+02  2.141E-26  3.179E-16
5.546E+02  2.219E-26  3.264E-16
5.495E+02  2.299E-26  3.351E-16
5.445E+02  2.382E-26  3.441E-16
5.395E+02  2.468E-26  3.532E-16
5.346E+02  2.557E-26  3.626E-16
5.297E+02  2.649E-26  3.722E-16
5.248E+02  2.745E-26  3.821E-16
5.200E+02  2.843E-26  3.922E-16
5.152E+02  2.946E-26  4.026E-16
5.105E+02  3.052E-26  4.132E-16
5.058E+02  3.161E-26  4.241E-16
5.012E+02  3.274E-26  4.353E-16
4.966E+02  3.391E-26  4.467E-16
4.920E+02  3.513E-26  4.585E-16
4.875E+02  3.638E-26  4.705E-16
4.831E+02  3.768E-26  4.828E-16
4.786E+02  3.902E-26  4.954E-16
4.742E+02  4.041E-26  5.083E-16
4.699E+02  4.184E-26  5.215E-16
4.656E+02  4.333E-26  5.351E-16
4.613E+02  4.486E-26  5.490E-16
4.571E+02  4.645E-26  5.632E-16
4.529E+02  4.809E-26  5.778E-16
4.487E+02  4.979E-26  5.927E-16
4.446E+02  5.154E-26  6.079E-16
4.406E+02  5.336E-26  6.235E-16
4.365E+02  5.523E-26  6.395E-16
4.325E+02  5.716E-26  6.558E-16
4.285E+02  5.917E-26  6.726E-16
4.246E+02  6.124E-26  6.897E-16
4.207E+02  6.337E-26  7.072E-16
4.169E+02  6.558E-26  7.252E-16
4.130E+02  6.786E-26  7.435E-16
4.093E+02  7.022E-26  7.623E-16
4.055E+02  7.265E-26  7.815E-16
4.018E+02  7.517E-26  8.011E-16
3.981E+02  7.776E-26  8.212E-16
3.945E+02  8.045E-26  8.418E-16
3.908E+02  8.322E-26  8.628E-16
3.873E+02  8.609E-26  8.843E-16
3.837E+02  8.904E-26  9.063E-16
3.802E+02  9.210E-26  9.288E-16
3.767E+02  9.524E-26  9.517E-16
3.733E+02  9.849E-26  9.751E-16
3.698E+02  1.018E-25  9.991E-16
3.664E+02  1.053E-25  1.024E-15
3.631E+02  1.089E-25  1.049E-15
3.597E+02  1.126E-25  1.074E-15
3.565E+02  1.164E-25  1.100E-15
3.532E+02  1.203E-25  1.127E-15
3.499E+02  1.243E-25  1.154E-15
3.467E+02  1.285E-25  1.182E-15
3.436E+02  1.328E-25  1.210E-15
3.404E+02  1.372E-25  1.239E-15
3.373E+02  1.418E-25  1.268E-15
3.342E+02  1.465E-25  1.298E-15
3.311E+02  1.513E-25  1.329E-15
3.281E+02  1.563E-25  1.360E-15
3.251E+02  1.614E-25  1.392E-15
3.221E+02  1.667E-25  1.424E-15
3.192E+02  1.722E-25  1.458E-15
3.162E+02  1.778E-25  1.491E-15
3.133E+02  1.835E-25  1.526E-15
3.105E+02  1.895E-25  1.561E-15
3.076E+02  1.956E-25  1.596E-15
3.048E+02  2.019E-25  1.632E-15
3.020E+02  2.084E-25  1.669E-15
2.992E+02  2.150E-25  1.707E-15
2.965E+02  2.219E-25  1.745E-15
2.938E+02  2.289E-25  1.784E-15
2.911E+02  2.362E-25  1.824E-15
2.884E+02  2.436E-25  1.864E-15
2.858E+02  2.513E-25  1.905E-15
2.831E+02  2.591E-25  1.946E-15
2.805E+02  2.672E-25  1.988E-15
2.780E+02  2.755E-25  2.031E-15
2.754E+02  2.840E-25  2.075E-15
2.729E+02  2.928E-25  2.119E-15
2.704E+02  3.018E-25  2.165E-15
2.679E+02  3.111E-25  2.211E-15
2.655E+02  3.206E-25  2.258E-15
2.630E+02  3.304E-25  2.305E-15
2.606E+02  3.404E-25  2.353E-15
2.582E+02  3.507E-25  2.402E-15
2.559E+02  3.612E-25  2.451E-15
2.535E+02  3.719E-25  2.501E-15
2.512E+02  3.828E-25  2.551E-15
2.489E+02  3.937E-25  2.599E-15
2.466E+02  4.046E-25  2.646E-15
2.443E+02  4.156E-25  2.694E-15
2.421E+02  4.267E-25  2.741E-15
2.399E+02  4.380E-25  2.787E-15
2.377E+02  4.493E-25  2.832E-15
2.355E+02  4.607E-25  2.878E-15
2.333E+02  4.723E-25  2.923E-15
2.312E+02  4.842E-25  2.969E-15
2.291E+02  4.962E-25  3.015E-15
2.270E+02  5.085E-25  3.061E-15
2.249E+02  5.209E-25  3.108E-15
2.228E+02  5.336E-25  3.154E-15
2.208E+02  5.465E-25  3.201E-15
2.188E+02  5.596E-25  3.247E-15
2.168E+02  5.729E-25  3.294E-15
2.148E+02  5.864E-25  3.341E-15
2.128E+02  6.001E-25  3.387E-15
2.109E+02  6.140E-25  3.434E-15
2.089E+02  6.281E-25  3.481E-15
2.070E+02  6.424E-25  3.527E-15
2.051E+02  6.568E-25  3.574E-15
2.032E+02  6.715E-25  3.620E-15
2.014E+02  6.864E-25  3.666E-15
1.995E+02  7.014E-25  3.712E-15
1.977E+02  7.167E-25  3.758E-15
1.959E+02  7.321E-25  3.804E-15
1.941E+02  7.477E-25  3.849E-15
1.923E+02  7.634E-25  3.894E-15
1.905E+02  7.794E-25  3.939E-15
1.888E+02  7.956E-25  3.984E-15
1.871E+02  8.119E-25  4.029E-15
1.854E+02  8.284E-25  4.073E-15
1.837E+02  8.451E-25  4.117E-15
1.820E+02  8.619E-25  4.160E-15
1.803E+02  8.789E-25  4.204E-15
1.786E+02  8.961E-25  4.247E-15
1.770E+02  9.135E-25  4.289E-15
1.754E+02  9.310E-25  4.331E-15
1.738E+02  9.487E-25  4.373E-15
1.722E+02  9.666E-25  4.415E-15
1.706E+02  9.847E-25  4.456E-15
1.690E+02  1.003E-24  4.497E-15
1.675E+02  1.021E-24  4.538E-15
1.660E+02  1.040E-24  4.578E-15
1.644E+02  1.059E-24  4.618E-15
1.629E+02  1.078E-24  4.658E-15
1.614E+02  1.097E-24  4.698E-15
1.600E+02  1.117E-24  4.738E-15
1.585E+02  1.136E-24  4.777E-15
1.570E+02  1.156E-24  4.817E-15
1.556E+02  1.177E-24  4.857E-15
1.542E+02  1.198E-24  4.897E-15
1.528E+02  1.219E-24  4.938E-15
1.514E+02  1.240E-24  4.979E-15
1.500E+02  1.262E-24  5.020E-15
1.486E+02  1.284E-24  5.062E-15
1.472E+02  1.307E-24  5.105E-15
1.459E+02  1.330E-24  5.147E-15
1.445E+02  1.353E-24  5.189E-15
1.432E+02  1.376E-24  5.228E-15
1.419E+02  1.399E-24  5.264E-15
1.406E+02  1.420E-24  5.295E-15
1.393E+02  1.439E-24  5.319E-15
1.380E+02  1.457E-24  5.336E-15
1.368E+02  1.473E-24  5.346E-15
1.355E+02  1.488E-24  5.349E-15
1.343E+02  1.502E-24  5.348E-15
1.330E+02  1.515E-24  5.345E-15
1.318E+02  1.528E-24  5.342E-15
1.306E+02  1.541E-24  5.338E-15
1.294E+02  1.554E-24  5.334E-15
1.282E+02  1.567E-24  5.331E-15
1.271E+02  1.581E-24  5.329E-15
1.259E+02  1.595E-24  5.327E-15
1.247E+02  1.609E-24  5.325E-15
1.236E+02  1.624E-24  5.324E-15
1.225E+02  1.639E-24  5.323E-15
1.213E+02  1.654E-24  5.323E-15
1.202E+02  1.669E-24  5.322E-15
1.191E+02  1.684E-24  5.321E-15
1.180E+02  1.699E-24  5.320E-15
1.169E+02  1.714E-24  5.317E-15
1.159E+02  1.729E-24  5.315E-15
1.148E+02  1.744E-24  5.312E-15
1.138E+02  1.759E-24  5.309E-15
1.127E+02  1.774E-24  5.305E-15
1.117E+02  1.790E-24  5.302E-15
1.107E+02  1.805E-24  5.298E-15
1.096E+02  1.820E-24  5.294E-15
1.086E+02  1.836E-24  5.290E-15
1.076E+02  1.851E-24  5.285E-15
1.067E+02  1.866E-24  5.279E-15
1.057E+02  1.881E-24  5.273E-15
1.047E+02  1.896E-24  5.267E-15
1.038E+02  1.911E-24  5.260E-15
1.028E+02  1.926E-24  5.252E-15
1.019E+02  1.941E-24  5.243E-15
1.009E+02  1.955E-24  5.234E-15
1.000E+02  1.969E-24  5.224E-15
9.908E+01  1.983E-24  5.213E-15
9.817E+01  1.998E-24  5.202E-15
9.727E+01  2.011E-24  5.190E-15
9.638E+01  2.025E-24  5.178E-15
9.550E+01  2.039E-24  5.165E-15
9.462E+01  2.053E-24  5.152E-15
9.376E+01  2.066E-24  5.138E-15
9.290E+01  2.079E-24  5.124E-15
9.204E+01  2.093E-24  5.109E-15
9.120E+01  2.106E-24  5.094E-15
9.036E+01  2.118E-24  5.078E-15
8.954E+01  2.131E-24  5.062E-15
8.872E+01  2.144E-24  5.045E-15
8.790E+01  2.157E-24  5.029E-15
8.710E+01  2.169E-24  5.012E-15
8.630E+01  2.182E-24  4.994E-15
8.551E+01  2.194E-24  4.977E-15
8.472E+01  2.206E-24  4.958E-15
8.395E+01  2.218E-24  4.940E-15
8.318E+01  2.230E-24  4.921E-15
8.241E+01  2.242E-24  4.902E-15
8.166E+01  2.254E-24  4.883E-15
8.091E+01  2.266E-24  4.863E-15
8.017E+01  2.278E-24  4.844E-15
7.943E+01  2.289E-24  4.824E-15
7.870E+01  2.301E-24  4.803E-15
7.798E+01  2.312E-24  4.783E-15
7.727E+01  2.323E-24  4.762E-15
7.656E+01  2.335E-24  4.741E-15
7.586E+01  2.346E-24  4.720E-15
7.516E+01  2.357E-24  4.699E-15
7.447E+01  2.368E-24  4.678E-15
7.379E+01  2.379E-24  4.656E-15
7.311E+01  2.389E-24  4.634E-15
7.244E+01  2.400E-24  4.611E-15
7.178E+01  2.410E-24  4.589E-15
7.112E+01  2.420E-24  4.566E-15
7.047E+01  2.431E-24  4.544E-15
6.982E+01  2.442E-24  4.523E-15
6.918E+01  2.453E-24  4.501E-15
6.855E+01  2.463E-24  4.479E-15
6.792E+01  2.473E-24  4.456E-15
6.730E+01  2.484E-24  4.434E-15
6.668E+01  2.494E-24  4.411E-15
6.607E+01  2.505E-24  4.389E-15
6.546E+01  2.515E-24  4.367E-15
6.486E+01  2.525E-24  4.345E-15
6.427E+01  2.536E-24  4.323E-15
6.368E+01  2.546E-24  4.301E-15
6.310E+01  2.557E-24  4.279E-15
6.252E+01  2.567E-24  4.258E-15
6.194E+01  2.578E-24  4.236E-15
6.138E+01  2.589E-24  4.215E-15
6.081E+01  2.600E-24  4.194E-15
6.026E+01  2.611E-24  4.173E-15
5.970E+01  2.622E-24  4.152E-15
5.916E+01  2.633E-24  4.131E-15
5.861E+01  2.643E-24  4.110E-15
5.808E+01  2.654E-24  4.089E-15
5.754E+01  2.665E-24  4.068E-15
5.702E+01  2.676E-24  4.048E-15
5.649E+01  2.688E-24  4.028E-15
5.598E+01  2.699E-24  4.008E-15
5.546E+01  2.711E-24  3.988E-15
5.495E+01  2.723E-24  3.969E-15
5.445E+01  2.735E-24  3.950E-15
5.395E+01  2.747E-24  3.932E-15
5.346E+01  2.760E-24  3.914E-15
5.297E+01  2.773E-24  3.895E-15
5.248E+01  2.786E-24  3.878E-15
5.200E+01  2.799E-24  3.860E-15
5.152E+01  2.812E-24  3.843E-15
5.105E+01  2.825E-24  3.825E-15
5.058E+01  2.839E-24  3.809E-15
5.012E+01  2.852E-24  3.792E-15
4.966E+01  2.866E-24  3.775E-15
