Dust emission from Draine & Li (2007): ApJ 657, 810-837
================================================================
        11 = grain model
 4.000E-08 4.000E-01 0.000E+00 = a_01 (cm) , sigma_1 , b_C1/0.92
 2.500E-07 4.000E-01 0.000E+00 = a_02 (cm) , sigma_2 , b_C2/0.92
 4.000E-01 1.000E+04 2.000E+00 = Umin , Umax, beta (dN/dU propto U^{-beta})
 4.051E+00 = <U> 
     mmp83 = radfield
 2.237E-24 = power/H (erg s-1)
 band   nu*P_nu(band) j_nu(band)
 (um)   (erg s-1 H-1)(Jy cm2 sr-1 H-1)
1.270E+00  2.268E-27  7.641E-20 COBE-DIRBE
2.220E+00  3.812E-27  2.245E-19 COBE-DIRBE
3.530E+00  6.520E-27  6.105E-19 COBE-DIRBE
4.880E+00  4.923E-27  6.372E-19 COBE-DIRBE
1.229E+01  6.899E-26  2.249E-17 COBE-DIRBE
2.079E+01  2.500E-25  1.379E-16 COBE-DIRBE
5.599E+01  1.178E-24  1.749E-15 COBE-DIRBE
9.770E+01  1.066E-24  2.762E-15 COBE-DIRBE
1.479E+02  7.284E-25  2.857E-15 COBE-DIRBE
2.479E+02  2.557E-25  1.681E-15 COBE-DIRBE
1.200E+01  6.424E-26  2.045E-17 IRAS
2.500E+01  3.520E-25  2.334E-16 IRAS
6.000E+01  1.176E-24  1.872E-15 IRAS
1.000E+02  1.051E-24  2.787E-15 IRAS
3.550E+00  6.964E-27  6.558E-19 SST-IRAC
4.493E+00  4.620E-27  5.507E-19 SST-IRAC
5.731E+00  1.080E-26  1.641E-18 SST-IRAC
7.872E+00  4.510E-26  9.418E-18 SST-IRAC
2.368E+01  3.363E-25  2.112E-16 SST-MIPS
7.142E+01  1.091E-24  2.067E-15 SST-MIPS
1.559E+02  6.398E-25  2.646E-15 SST-MIPS
1.600E+01  9.451E-26  4.011E-17 SST-IRSPU
2.200E+01  3.166E-25  1.848E-16 SST-IRSPU











lambda    nu*dP/dnu     j_nu
 (um)   (erg s-1 H-1)(Jy cm2 sr-1 H-1)
1.000E+04  1.201E-31  3.185E-20
9.908E+03  1.244E-31  3.271E-20
9.817E+03  1.289E-31  3.358E-20
9.727E+03  1.336E-31  3.447E-20
9.638E+03  1.384E-31  3.539E-20
9.550E+03  1.434E-31  3.634E-20
9.462E+03  1.486E-31  3.731E-20
9.376E+03  1.540E-31  3.830E-20
9.290E+03  1.596E-31  3.932E-20
9.204E+03  1.654E-31  4.037E-20
9.120E+03  1.713E-31  4.145E-20
9.036E+03  1.775E-31  4.256E-20
8.954E+03  1.839E-31  4.369E-20
8.872E+03  1.905E-31  4.484E-20
8.790E+03  1.974E-31  4.603E-20
8.710E+03  2.045E-31  4.725E-20
8.630E+03  2.119E-31  4.850E-20
8.551E+03  2.195E-31  4.978E-20
8.472E+03  2.274E-31  5.111E-20
8.395E+03  2.356E-31  5.246E-20
8.318E+03  2.441E-31  5.386E-20
8.241E+03  2.529E-31  5.529E-20
8.166E+03  2.621E-31  5.676E-20
8.091E+03  2.715E-31  5.828E-20
8.017E+03  2.814E-31  5.983E-20
7.943E+03  2.915E-31  6.143E-20
7.870E+03  3.021E-31  6.307E-20
7.798E+03  3.130E-31  6.476E-20
7.727E+03  3.244E-31  6.649E-20
7.656E+03  3.362E-31  6.827E-20
7.586E+03  3.484E-31  7.010E-20
7.516E+03  3.610E-31  7.198E-20
7.447E+03  3.741E-31  7.391E-20
7.379E+03  3.877E-31  7.589E-20
7.311E+03  4.018E-31  7.793E-20
7.244E+03  4.165E-31  8.003E-20
7.178E+03  4.316E-31  8.218E-20
7.112E+03  4.474E-31  8.440E-20
7.047E+03  4.637E-31  8.667E-20
6.982E+03  4.806E-31  8.901E-20
6.918E+03  4.981E-31  9.140E-20
6.855E+03  5.162E-31  9.386E-20
6.792E+03  5.350E-31  9.639E-20
6.730E+03  5.545E-31  9.899E-20
6.668E+03  5.748E-31  1.017E-19
6.607E+03  5.958E-31  1.044E-19
6.546E+03  6.176E-31  1.072E-19
6.486E+03  6.401E-31  1.101E-19
6.427E+03  6.636E-31  1.131E-19
6.368E+03  6.879E-31  1.162E-19
6.310E+03  7.131E-31  1.193E-19
6.252E+03  7.392E-31  1.226E-19
6.194E+03  7.663E-31  1.259E-19
6.138E+03  7.945E-31  1.293E-19
6.081E+03  8.236E-31  1.329E-19
6.026E+03  8.539E-31  1.365E-19
5.970E+03  8.853E-31  1.402E-19
5.916E+03  9.179E-31  1.440E-19
5.861E+03  9.516E-31  1.480E-19
5.808E+03  9.867E-31  1.520E-19
5.754E+03  1.023E-30  1.562E-19
5.702E+03  1.061E-30  1.604E-19
5.649E+03  1.100E-30  1.648E-19
5.598E+03  1.141E-30  1.693E-19
5.546E+03  1.183E-30  1.740E-19
5.495E+03  1.226E-30  1.788E-19
5.445E+03  1.272E-30  1.837E-19
5.395E+03  1.319E-30  1.887E-19
5.346E+03  1.368E-30  1.939E-19
5.297E+03  1.418E-30  1.992E-19
5.248E+03  1.471E-30  2.047E-19
5.200E+03  1.525E-30  2.104E-19
5.152E+03  1.582E-30  2.162E-19
5.105E+03  1.640E-30  2.221E-19
5.058E+03  1.701E-30  2.283E-19
5.012E+03  1.765E-30  2.346E-19
4.966E+03  1.830E-30  2.411E-19
4.920E+03  1.898E-30  2.477E-19
4.875E+03  1.969E-30  2.546E-19
4.831E+03  2.042E-30  2.616E-19
4.786E+03  2.118E-30  2.689E-19
4.742E+03  2.197E-30  2.763E-19
4.699E+03  2.278E-30  2.840E-19
4.656E+03  2.363E-30  2.919E-19
4.613E+03  2.452E-30  3.000E-19
4.571E+03  2.543E-30  3.083E-19
4.529E+03  2.638E-30  3.169E-19
4.487E+03  2.737E-30  3.257E-19
4.446E+03  2.839E-30  3.348E-19
4.406E+03  2.945E-30  3.442E-19
4.365E+03  3.055E-30  3.538E-19
4.325E+03  3.170E-30  3.637E-19
4.285E+03  3.289E-30  3.738E-19
4.246E+03  3.412E-30  3.843E-19
4.207E+03  3.540E-30  3.951E-19
4.169E+03  3.673E-30  4.061E-19
4.130E+03  3.811E-30  4.175E-19
4.093E+03  3.954E-30  4.292E-19
4.055E+03  4.103E-30  4.413E-19
4.018E+03  4.257E-30  4.537E-19
3.981E+03  4.417E-30  4.665E-19
3.945E+03  4.583E-30  4.795E-19
3.908E+03  4.755E-30  4.930E-19
3.873E+03  4.934E-30  5.069E-19
3.837E+03  5.120E-30  5.212E-19
3.802E+03  5.313E-30  5.358E-19
3.767E+03  5.514E-30  5.509E-19
3.733E+03  5.722E-30  5.665E-19
3.698E+03  5.938E-30  5.825E-19
3.664E+03  6.162E-30  5.990E-19
3.631E+03  6.395E-30  6.159E-19
3.597E+03  6.637E-30  6.334E-19
3.565E+03  6.889E-30  6.513E-19
3.532E+03  7.150E-30  6.698E-19
3.499E+03  7.421E-30  6.889E-19
3.467E+03  7.703E-30  7.084E-19
3.436E+03  7.995E-30  7.286E-19
3.404E+03  8.299E-30  7.493E-19
3.373E+03  8.614E-30  7.707E-19
3.342E+03  8.942E-30  7.927E-19
3.311E+03  9.282E-30  8.153E-19
3.281E+03  9.636E-30  8.386E-19
3.251E+03  1.000E-29  8.626E-19
3.221E+03  1.038E-29  8.873E-19
3.192E+03  1.078E-29  9.127E-19
3.162E+03  1.119E-29  9.388E-19
3.133E+03  1.162E-29  9.658E-19
3.105E+03  1.206E-29  9.935E-19
3.076E+03  1.253E-29  1.022E-18
3.048E+03  1.300E-29  1.051E-18
3.020E+03  1.350E-29  1.082E-18
2.992E+03  1.402E-29  1.113E-18
2.965E+03  1.455E-29  1.145E-18
2.938E+03  1.511E-29  1.177E-18
2.911E+03  1.569E-29  1.211E-18
2.884E+03  1.629E-29  1.246E-18
2.858E+03  1.691E-29  1.282E-18
2.831E+03  1.756E-29  1.319E-18
2.805E+03  1.823E-29  1.357E-18
2.780E+03  1.893E-29  1.396E-18
2.754E+03  1.966E-29  1.436E-18
2.729E+03  2.041E-29  1.478E-18
2.704E+03  2.120E-29  1.520E-18
2.679E+03  2.201E-29  1.564E-18
2.655E+03  2.286E-29  1.610E-18
2.630E+03  2.374E-29  1.656E-18
2.606E+03  2.465E-29  1.704E-18
2.582E+03  2.560E-29  1.754E-18
2.559E+03  2.659E-29  1.804E-18
2.535E+03  2.761E-29  1.857E-18
2.512E+03  2.868E-29  1.911E-18
2.489E+03  2.979E-29  1.966E-18
2.466E+03  3.094E-29  2.024E-18
2.443E+03  3.213E-29  2.083E-18
2.421E+03  3.337E-29  2.143E-18
2.399E+03  3.467E-29  2.206E-18
2.377E+03  3.601E-29  2.270E-18
2.355E+03  3.740E-29  2.336E-18
2.333E+03  3.885E-29  2.405E-18
2.312E+03  4.036E-29  2.475E-18
2.291E+03  4.192E-29  2.547E-18
2.270E+03  4.355E-29  2.622E-18
2.249E+03  4.524E-29  2.699E-18
2.228E+03  4.699E-29  2.778E-18
2.208E+03  4.882E-29  2.859E-18
2.188E+03  5.071E-29  2.943E-18
2.168E+03  5.268E-29  3.029E-18
2.148E+03  5.473E-29  3.118E-18
2.128E+03  5.686E-29  3.210E-18
2.109E+03  5.907E-29  3.304E-18
2.089E+03  6.137E-29  3.401E-18
2.070E+03  6.375E-29  3.501E-18
2.051E+03  6.623E-29  3.604E-18
2.032E+03  6.881E-29  3.710E-18
2.014E+03  7.149E-29  3.819E-18
1.995E+03  7.428E-29  3.931E-18
1.977E+03  7.717E-29  4.047E-18
1.959E+03  8.017E-29  4.166E-18
1.941E+03  8.329E-29  4.288E-18
1.923E+03  8.654E-29  4.415E-18
1.905E+03  8.991E-29  4.544E-18
1.888E+03  9.342E-29  4.678E-18
1.871E+03  9.706E-29  4.816E-18
1.854E+03  1.008E-28  4.958E-18
1.837E+03  1.048E-28  5.104E-18
1.820E+03  1.089E-28  5.255E-18
1.803E+03  1.131E-28  5.410E-18
1.786E+03  1.175E-28  5.569E-18
1.770E+03  1.221E-28  5.734E-18
1.754E+03  1.269E-28  5.903E-18
1.738E+03  1.318E-28  6.077E-18
1.722E+03  1.370E-28  6.256E-18
1.706E+03  1.423E-28  6.441E-18
1.690E+03  1.479E-28  6.631E-18
1.675E+03  1.537E-28  6.827E-18
1.660E+03  1.597E-28  7.028E-18
1.644E+03  1.659E-28  7.236E-18
1.629E+03  1.724E-28  7.449E-18
1.614E+03  1.791E-28  7.669E-18
1.600E+03  1.861E-28  7.895E-18
1.585E+03  1.933E-28  8.128E-18
1.570E+03  2.009E-28  8.368E-18
1.556E+03  2.087E-28  8.615E-18
1.542E+03  2.169E-28  8.869E-18
1.528E+03  2.253E-28  9.131E-18
1.514E+03  2.341E-28  9.400E-18
1.500E+03  2.433E-28  9.677E-18
1.486E+03  2.528E-28  9.963E-18
1.472E+03  2.626E-28  1.026E-17
1.459E+03  2.729E-28  1.056E-17
1.445E+03  2.835E-28  1.087E-17
1.432E+03  2.946E-28  1.119E-17
1.419E+03  3.061E-28  1.152E-17
1.406E+03  3.180E-28  1.186E-17
1.393E+03  3.304E-28  1.221E-17
1.380E+03  3.433E-28  1.257E-17
1.368E+03  3.567E-28  1.294E-17
1.355E+03  3.706E-28  1.332E-17
1.343E+03  3.850E-28  1.371E-17
1.330E+03  4.000E-28  1.412E-17
1.318E+03  4.156E-28  1.453E-17
1.306E+03  4.318E-28  1.496E-17
1.294E+03  4.486E-28  1.540E-17
1.282E+03  4.660E-28  1.585E-17
1.271E+03  4.841E-28  1.632E-17
1.259E+03  5.030E-28  1.680E-17
1.247E+03  5.225E-28  1.729E-17
1.236E+03  5.428E-28  1.779E-17
1.225E+03  5.638E-28  1.832E-17
1.213E+03  5.857E-28  1.885E-17
1.202E+03  6.084E-28  1.940E-17
1.191E+03  6.320E-28  1.997E-17
1.180E+03  6.565E-28  2.055E-17
1.169E+03  6.819E-28  2.115E-17
1.159E+03  7.082E-28  2.177E-17
1.148E+03  7.356E-28  2.240E-17
1.138E+03  7.641E-28  2.306E-17
1.127E+03  7.936E-28  2.373E-17
1.117E+03  8.242E-28  2.442E-17
1.107E+03  8.560E-28  2.513E-17
1.096E+03  8.889E-28  2.585E-17
1.086E+03  9.232E-28  2.660E-17
1.076E+03  9.587E-28  2.737E-17
1.067E+03  9.955E-28  2.817E-17
1.057E+03  1.034E-27  2.898E-17
1.047E+03  1.073E-27  2.982E-17
1.038E+03  1.115E-27  3.068E-17
1.028E+03  1.157E-27  3.156E-17
1.019E+03  1.202E-27  3.247E-17
1.009E+03  1.248E-27  3.340E-17
1.000E+03  1.295E-27  3.436E-17
9.908E+02  1.345E-27  3.534E-17
9.817E+02  1.396E-27  3.636E-17
9.727E+02  1.450E-27  3.740E-17
9.638E+02  1.505E-27  3.847E-17
9.550E+02  1.562E-27  3.957E-17
9.462E+02  1.622E-27  4.070E-17
9.376E+02  1.683E-27  4.187E-17
9.290E+02  1.747E-27  4.306E-17
9.204E+02  1.814E-27  4.428E-17
9.120E+02  1.883E-27  4.554E-17
9.036E+02  1.954E-27  4.683E-17
8.954E+02  2.028E-27  4.816E-17
8.872E+02  2.104E-27  4.952E-17
8.790E+02  2.184E-27  5.091E-17
8.710E+02  2.266E-27  5.235E-17
8.630E+02  2.351E-27  5.382E-17
8.551E+02  2.439E-27  5.533E-17
8.472E+02  2.531E-27  5.688E-17
8.395E+02  2.626E-27  5.846E-17
8.318E+02  2.724E-27  6.009E-17
8.241E+02  2.825E-27  6.177E-17
8.166E+02  2.931E-27  6.348E-17
8.091E+02  3.040E-27  6.524E-17
8.017E+02  3.153E-27  6.704E-17
7.943E+02  3.270E-27  6.889E-17
7.870E+02  3.391E-27  7.079E-17
7.798E+02  3.516E-27  7.274E-17
7.727E+02  3.646E-27  7.473E-17
7.656E+02  3.781E-27  7.678E-17
7.586E+02  3.920E-27  7.888E-17
7.516E+02  4.064E-27  8.103E-17
7.447E+02  4.214E-27  8.325E-17
7.379E+02  4.369E-27  8.552E-17
7.311E+02  4.530E-27  8.786E-17
7.244E+02  4.697E-27  9.025E-17
7.178E+02  4.869E-27  9.271E-17
7.112E+02  5.048E-27  9.523E-17
7.047E+02  5.233E-27  9.782E-17
6.982E+02  5.425E-27  1.005E-16
6.918E+02  5.623E-27  1.032E-16
6.855E+02  5.829E-27  1.060E-16
6.792E+02  6.042E-27  1.089E-16
6.730E+02  6.262E-27  1.118E-16
6.668E+02  6.489E-27  1.148E-16
6.607E+02  6.725E-27  1.179E-16
6.546E+02  6.970E-27  1.210E-16
6.486E+02  7.224E-27  1.243E-16
6.427E+02  7.488E-27  1.277E-16
6.368E+02  7.761E-27  1.311E-16
6.310E+02  8.043E-27  1.346E-16
6.252E+02  8.336E-27  1.382E-16
6.194E+02  8.639E-27  1.419E-16
6.138E+02  8.952E-27  1.457E-16
6.081E+02  9.277E-27  1.497E-16
6.026E+02  9.614E-27  1.537E-16
5.970E+02  9.962E-27  1.578E-16
5.916E+02  1.032E-26  1.620E-16
5.861E+02  1.070E-26  1.663E-16
5.808E+02  1.108E-26  1.707E-16
5.754E+02  1.148E-26  1.753E-16
5.702E+02  1.190E-26  1.800E-16
5.649E+02  1.233E-26  1.847E-16
5.598E+02  1.277E-26  1.896E-16
5.546E+02  1.323E-26  1.947E-16
5.495E+02  1.371E-26  1.998E-16
5.445E+02  1.420E-26  2.051E-16
5.395E+02  1.471E-26  2.105E-16
5.346E+02  1.524E-26  2.161E-16
5.297E+02  1.578E-26  2.218E-16
5.248E+02  1.635E-26  2.276E-16
5.200E+02  1.694E-26  2.336E-16
5.152E+02  1.754E-26  2.397E-16
5.105E+02  1.817E-26  2.460E-16
5.058E+02  1.882E-26  2.525E-16
5.012E+02  1.949E-26  2.591E-16
4.966E+02  2.018E-26  2.658E-16
4.920E+02  2.090E-26  2.727E-16
4.875E+02  2.164E-26  2.798E-16
4.831E+02  2.241E-26  2.871E-16
4.786E+02  2.320E-26  2.946E-16
4.742E+02  2.402E-26  3.022E-16
4.699E+02  2.487E-26  3.100E-16
4.656E+02  2.574E-26  3.179E-16
4.613E+02  2.665E-26  3.261E-16
4.571E+02  2.759E-26  3.345E-16
4.529E+02  2.856E-26  3.431E-16
4.487E+02  2.956E-26  3.518E-16
4.446E+02  3.059E-26  3.608E-16
4.406E+02  3.166E-26  3.700E-16
4.365E+02  3.277E-26  3.794E-16
4.325E+02  3.391E-26  3.890E-16
4.285E+02  3.509E-26  3.988E-16
4.246E+02  3.631E-26  4.089E-16
4.207E+02  3.756E-26  4.192E-16
4.169E+02  3.886E-26  4.297E-16
4.130E+02  4.020E-26  4.405E-16
4.093E+02  4.159E-26  4.515E-16
4.055E+02  4.302E-26  4.628E-16
4.018E+02  4.450E-26  4.743E-16
3.981E+02  4.603E-26  4.861E-16
3.945E+02  4.761E-26  4.981E-16
3.908E+02  4.924E-26  5.104E-16
3.873E+02  5.092E-26  5.231E-16
3.837E+02  5.266E-26  5.359E-16
3.802E+02  5.445E-26  5.491E-16
3.767E+02  5.629E-26  5.625E-16
3.733E+02  5.820E-26  5.762E-16
3.698E+02  6.016E-26  5.902E-16
3.664E+02  6.219E-26  6.045E-16
3.631E+02  6.429E-26  6.192E-16
3.597E+02  6.644E-26  6.340E-16
3.565E+02  6.867E-26  6.492E-16
3.532E+02  7.096E-26  6.648E-16
3.499E+02  7.332E-26  6.806E-16
3.467E+02  7.576E-26  6.968E-16
3.436E+02  7.827E-26  7.133E-16
3.404E+02  8.086E-26  7.302E-16
3.373E+02  8.353E-26  7.473E-16
3.342E+02  8.628E-26  7.648E-16
3.311E+02  8.911E-26  7.827E-16
3.281E+02  9.202E-26  8.008E-16
3.251E+02  9.502E-26  8.193E-16
3.221E+02  9.810E-26  8.382E-16
3.192E+02  1.013E-25  8.575E-16
3.162E+02  1.046E-25  8.771E-16
3.133E+02  1.079E-25  8.969E-16
3.105E+02  1.114E-25  9.172E-16
3.076E+02  1.149E-25  9.379E-16
3.048E+02  1.186E-25  9.589E-16
3.020E+02  1.224E-25  9.803E-16
2.992E+02  1.263E-25  1.002E-15
2.965E+02  1.302E-25  1.024E-15
2.938E+02  1.343E-25  1.047E-15
2.911E+02  1.385E-25  1.070E-15
2.884E+02  1.429E-25  1.093E-15
2.858E+02  1.473E-25  1.117E-15
2.831E+02  1.519E-25  1.141E-15
2.805E+02  1.565E-25  1.165E-15
2.780E+02  1.614E-25  1.190E-15
2.754E+02  1.663E-25  1.215E-15
2.729E+02  1.714E-25  1.241E-15
2.704E+02  1.766E-25  1.267E-15
2.679E+02  1.820E-25  1.293E-15
2.655E+02  1.875E-25  1.320E-15
2.630E+02  1.932E-25  1.348E-15
2.606E+02  1.990E-25  1.375E-15
2.582E+02  2.049E-25  1.404E-15
2.559E+02  2.110E-25  1.432E-15
2.535E+02  2.172E-25  1.460E-15
2.512E+02  2.234E-25  1.489E-15
2.489E+02  2.297E-25  1.517E-15
2.466E+02  2.360E-25  1.544E-15
2.443E+02  2.423E-25  1.570E-15
2.421E+02  2.487E-25  1.597E-15
2.399E+02  2.551E-25  1.623E-15
2.377E+02  2.615E-25  1.649E-15
2.355E+02  2.680E-25  1.674E-15
2.333E+02  2.747E-25  1.700E-15
2.312E+02  2.814E-25  1.726E-15
2.291E+02  2.883E-25  1.752E-15
2.270E+02  2.952E-25  1.778E-15
2.249E+02  3.023E-25  1.803E-15
2.228E+02  3.095E-25  1.829E-15
2.208E+02  3.168E-25  1.855E-15
2.188E+02  3.242E-25  1.881E-15
2.168E+02  3.317E-25  1.907E-15
2.148E+02  3.394E-25  1.933E-15
2.128E+02  3.471E-25  1.959E-15
2.109E+02  3.549E-25  1.985E-15
2.089E+02  3.629E-25  2.011E-15
2.070E+02  3.709E-25  2.037E-15
2.051E+02  3.790E-25  2.062E-15
2.032E+02  3.872E-25  2.088E-15
2.014E+02  3.956E-25  2.113E-15
1.995E+02  4.040E-25  2.138E-15
1.977E+02  4.125E-25  2.163E-15
1.959E+02  4.211E-25  2.188E-15
1.941E+02  4.298E-25  2.213E-15
1.923E+02  4.386E-25  2.238E-15
1.905E+02  4.475E-25  2.262E-15
1.888E+02  4.565E-25  2.286E-15
1.871E+02  4.655E-25  2.310E-15
1.854E+02  4.747E-25  2.334E-15
1.837E+02  4.839E-25  2.357E-15
1.820E+02  4.932E-25  2.381E-15
1.803E+02  5.026E-25  2.404E-15
1.786E+02  5.120E-25  2.426E-15
1.770E+02  5.216E-25  2.449E-15
1.754E+02  5.312E-25  2.471E-15
1.738E+02  5.409E-25  2.493E-15
1.722E+02  5.506E-25  2.515E-15
1.706E+02  5.605E-25  2.536E-15
1.690E+02  5.704E-25  2.558E-15
1.675E+02  5.804E-25  2.579E-15
1.660E+02  5.905E-25  2.599E-15
1.644E+02  6.006E-25  2.620E-15
1.629E+02  6.109E-25  2.640E-15
1.614E+02  6.212E-25  2.660E-15
1.600E+02  6.317E-25  2.680E-15
1.585E+02  6.422E-25  2.700E-15
1.570E+02  6.528E-25  2.719E-15
1.556E+02  6.636E-25  2.739E-15
1.542E+02  6.745E-25  2.758E-15
1.528E+02  6.855E-25  2.778E-15
1.514E+02  6.967E-25  2.797E-15
1.500E+02  7.080E-25  2.816E-15
1.486E+02  7.195E-25  2.836E-15
1.472E+02  7.310E-25  2.855E-15
1.459E+02  7.427E-25  2.874E-15
1.445E+02  7.543E-25  2.892E-15
1.432E+02  7.659E-25  2.909E-15
1.419E+02  7.770E-25  2.925E-15
1.406E+02  7.877E-25  2.938E-15
1.393E+02  7.978E-25  2.948E-15
1.380E+02  8.071E-25  2.955E-15
1.368E+02  8.157E-25  2.959E-15
1.355E+02  8.236E-25  2.961E-15
1.343E+02  8.312E-25  2.960E-15
1.330E+02  8.384E-25  2.959E-15
1.318E+02  8.455E-25  2.957E-15
1.306E+02  8.526E-25  2.954E-15
1.294E+02  8.597E-25  2.951E-15
1.282E+02  8.669E-25  2.949E-15
1.271E+02  8.742E-25  2.946E-15
1.259E+02  8.815E-25  2.944E-15
1.247E+02  8.889E-25  2.941E-15
1.236E+02  8.963E-25  2.939E-15
1.225E+02  9.038E-25  2.936E-15
1.213E+02  9.113E-25  2.933E-15
1.202E+02  9.189E-25  2.930E-15
1.191E+02  9.263E-25  2.927E-15
1.180E+02  9.338E-25  2.924E-15
1.169E+02  9.412E-25  2.920E-15
1.159E+02  9.485E-25  2.915E-15
1.148E+02  9.558E-25  2.911E-15
1.138E+02  9.630E-25  2.906E-15
1.127E+02  9.702E-25  2.901E-15
1.117E+02  9.774E-25  2.896E-15
1.107E+02  9.845E-25  2.890E-15
1.096E+02  9.916E-25  2.884E-15
1.086E+02  9.987E-25  2.878E-15
1.076E+02  1.006E-24  2.871E-15
1.067E+02  1.012E-24  2.865E-15
1.057E+02  1.019E-24  2.857E-15
1.047E+02  1.026E-24  2.850E-15
1.038E+02  1.033E-24  2.842E-15
1.028E+02  1.039E-24  2.834E-15
1.019E+02  1.045E-24  2.825E-15
1.009E+02  1.052E-24  2.816E-15
1.000E+02  1.058E-24  2.806E-15
9.908E+01  1.064E-24  2.796E-15
9.817E+01  1.070E-24  2.786E-15
9.727E+01  1.075E-24  2.775E-15
9.638E+01  1.081E-24  2.764E-15
9.550E+01  1.087E-24  2.752E-15
9.462E+01  1.092E-24  2.741E-15
9.376E+01  1.097E-24  2.729E-15
9.290E+01  1.102E-24  2.716E-15
9.204E+01  1.107E-24  2.704E-15
9.120E+01  1.112E-24  2.691E-15
9.036E+01  1.117E-24  2.677E-15
8.954E+01  1.122E-24  2.664E-15
8.872E+01  1.126E-24  2.650E-15
8.790E+01  1.131E-24  2.636E-15
8.710E+01  1.135E-24  2.622E-15
8.630E+01  1.139E-24  2.608E-15
8.551E+01  1.143E-24  2.593E-15
8.472E+01  1.147E-24  2.578E-15
8.395E+01  1.151E-24  2.563E-15
8.318E+01  1.155E-24  2.547E-15
8.241E+01  1.158E-24  2.532E-15
8.166E+01  1.162E-24  2.516E-15
8.091E+01  1.165E-24  2.500E-15
8.017E+01  1.168E-24  2.484E-15
7.943E+01  1.171E-24  2.468E-15
7.870E+01  1.174E-24  2.452E-15
7.798E+01  1.177E-24  2.435E-15
7.727E+01  1.180E-24  2.418E-15
7.656E+01  1.183E-24  2.401E-15
7.586E+01  1.185E-24  2.385E-15
7.516E+01  1.187E-24  2.368E-15
7.447E+01  1.190E-24  2.350E-15
7.379E+01  1.192E-24  2.333E-15
7.311E+01  1.194E-24  2.315E-15
7.244E+01  1.195E-24  2.297E-15
7.178E+01  1.197E-24  2.279E-15
7.112E+01  1.199E-24  2.261E-15
7.047E+01  1.200E-24  2.243E-15
6.982E+01  1.202E-24  2.226E-15
6.918E+01  1.203E-24  2.208E-15
6.855E+01  1.204E-24  2.189E-15
6.792E+01  1.205E-24  2.171E-15
6.730E+01  1.206E-24  2.152E-15
6.668E+01  1.207E-24  2.134E-15
6.607E+01  1.207E-24  2.116E-15
6.546E+01  1.208E-24  2.097E-15
6.486E+01  1.208E-24  2.079E-15
6.427E+01  1.208E-24  2.060E-15
6.368E+01  1.209E-24  2.041E-15
6.310E+01  1.209E-24  2.023E-15
6.252E+01  1.209E-24  2.004E-15
6.194E+01  1.209E-24  1.986E-15
6.138E+01  1.208E-24  1.967E-15
6.081E+01  1.208E-24  1.949E-15
6.026E+01  1.208E-24  1.930E-15
5.970E+01  1.207E-24  1.912E-15
5.916E+01  1.206E-24  1.893E-15
5.861E+01  1.205E-24  1.874E-15
5.808E+01  1.204E-24  1.855E-15
5.754E+01  1.203E-24  1.836E-15
5.702E+01  1.202E-24  1.817E-15
5.649E+01  1.200E-24  1.799E-15
5.598E+01  1.199E-24  1.780E-15
5.546E+01  1.197E-24  1.761E-15
5.495E+01  1.196E-24  1.743E-15
5.445E+01  1.194E-24  1.724E-15
5.395E+01  1.192E-24  1.706E-15
5.346E+01  1.190E-24  1.688E-15
5.297E+01  1.188E-24  1.669E-15
5.248E+01  1.186E-24  1.651E-15
5.200E+01  1.184E-24  1.632E-15
5.152E+01  1.181E-24  1.614E-15
5.105E+01  1.178E-24  1.596E-15
5.058E+01  1.176E-24  1.578E-15
5.012E+01  1.173E-24  1.559E-15
4.966E+01  1.170E-24  1.541E-15
