Dust emission from Draine & Li (2007): ApJ 657, 810-837
================================================================
        10 = grain model
 4.000E-08 4.000E-01 5.000E-06 = a_01 (cm) , sigma_1 , b_C1/0.92
 2.500E-07 4.000E-01 5.000E-06 = a_02 (cm) , sigma_2 , b_C2/0.92
 4.000E-01 4.000E-01 1.000E+00 = Umin , Umax, beta (dN/dU propto U^{-beta})
 4.000E-01 = <U> 
     mmp83 = radfield
 4.185E-25 = power/H (erg s-1)
 band   nu*P_nu(band) j_nu(band)
 (um)   (erg s-1 H-1)(Jy cm2 sr-1 H-1)
1.270E+00  1.147E-27  3.863E-20 COBE-DIRBE
2.220E+00  1.553E-27  9.145E-20 COBE-DIRBE
3.530E+00  8.200E-27  7.678E-19 COBE-DIRBE
4.880E+00  3.946E-27  5.108E-19 COBE-DIRBE
1.229E+01  3.690E-26  1.203E-17 COBE-DIRBE
2.079E+01  3.616E-26  1.994E-17 COBE-DIRBE
5.599E+01  6.319E-26  9.384E-17 COBE-DIRBE
9.770E+01  1.563E-25  4.050E-16 COBE-DIRBE
1.479E+02  2.486E-25  9.753E-16 COBE-DIRBE
2.479E+02  1.606E-25  1.056E-15 COBE-DIRBE
1.200E+01  3.835E-26  1.221E-17 IRAS
2.500E+01  3.566E-26  2.365E-17 IRAS
6.000E+01  6.787E-26  1.080E-16 IRAS
1.000E+02  1.636E-25  4.338E-16 IRAS
3.550E+00  9.475E-27  8.922E-19 SST-IRAC
4.493E+00  2.891E-27  3.445E-19 SST-IRAC
5.731E+00  2.144E-26  3.259E-18 SST-IRAC
7.872E+00  5.163E-26  1.078E-17 SST-IRAC
2.368E+01  3.259E-26  2.047E-17 SST-MIPS
7.142E+01  7.766E-26  1.471E-16 SST-MIPS
1.559E+02  2.470E-25  1.021E-15 SST-MIPS
1.600E+01  3.182E-26  1.350E-17 SST-IRSPU
2.200E+01  3.396E-26  1.982E-17 SST-IRSPU











lambda    nu*dP/dnu     j_nu
 (um)   (erg s-1 H-1)(Jy cm2 sr-1 H-1)
1.000E+04  1.524E-31  4.044E-20
9.908E+03  1.580E-31  4.152E-20
9.817E+03  1.637E-31  4.263E-20
9.727E+03  1.696E-31  4.377E-20
9.638E+03  1.758E-31  4.494E-20
9.550E+03  1.821E-31  4.614E-20
9.462E+03  1.887E-31  4.737E-20
9.376E+03  1.956E-31  4.864E-20
9.290E+03  2.027E-31  4.994E-20
9.204E+03  2.100E-31  5.127E-20
9.120E+03  2.176E-31  5.264E-20
9.036E+03  2.255E-31  5.405E-20
8.954E+03  2.336E-31  5.549E-20
8.872E+03  2.420E-31  5.696E-20
8.790E+03  2.508E-31  5.847E-20
8.710E+03  2.598E-31  6.002E-20
8.630E+03  2.692E-31  6.162E-20
8.551E+03  2.789E-31  6.326E-20
8.472E+03  2.890E-31  6.494E-20
8.395E+03  2.994E-31  6.667E-20
8.318E+03  3.102E-31  6.844E-20
8.241E+03  3.214E-31  7.027E-20
8.166E+03  3.331E-31  7.214E-20
8.091E+03  3.451E-31  7.407E-20
8.017E+03  3.576E-31  7.605E-20
7.943E+03  3.706E-31  7.808E-20
7.870E+03  3.840E-31  8.017E-20
7.798E+03  3.980E-31  8.232E-20
7.727E+03  4.124E-31  8.452E-20
7.656E+03  4.274E-31  8.679E-20
7.586E+03  4.429E-31  8.912E-20
7.516E+03  4.590E-31  9.151E-20
7.447E+03  4.757E-31  9.397E-20
7.379E+03  4.930E-31  9.650E-20
7.311E+03  5.110E-31  9.910E-20
7.244E+03  5.296E-31  1.018E-19
7.178E+03  5.489E-31  1.045E-19
7.112E+03  5.689E-31  1.073E-19
7.047E+03  5.896E-31  1.102E-19
6.982E+03  6.112E-31  1.132E-19
6.918E+03  6.334E-31  1.162E-19
6.855E+03  6.565E-31  1.194E-19
6.792E+03  6.805E-31  1.226E-19
6.730E+03  7.053E-31  1.259E-19
6.668E+03  7.311E-31  1.293E-19
6.607E+03  7.578E-31  1.328E-19
6.546E+03  7.855E-31  1.364E-19
6.486E+03  8.142E-31  1.401E-19
6.427E+03  8.440E-31  1.439E-19
6.368E+03  8.749E-31  1.478E-19
6.310E+03  9.070E-31  1.518E-19
6.252E+03  9.402E-31  1.559E-19
6.194E+03  9.747E-31  1.602E-19
6.138E+03  1.011E-30  1.645E-19
6.081E+03  1.048E-30  1.690E-19
6.026E+03  1.086E-30  1.736E-19
5.970E+03  1.126E-30  1.783E-19
5.916E+03  1.167E-30  1.832E-19
5.861E+03  1.210E-30  1.882E-19
5.808E+03  1.255E-30  1.933E-19
5.754E+03  1.301E-30  1.986E-19
5.702E+03  1.349E-30  2.040E-19
5.649E+03  1.399E-30  2.096E-19
5.598E+03  1.450E-30  2.154E-19
5.546E+03  1.504E-30  2.213E-19
5.495E+03  1.559E-30  2.273E-19
5.445E+03  1.617E-30  2.336E-19
5.395E+03  1.677E-30  2.400E-19
5.346E+03  1.739E-30  2.466E-19
5.297E+03  1.803E-30  2.533E-19
5.248E+03  1.870E-30  2.603E-19
5.200E+03  1.939E-30  2.675E-19
5.152E+03  2.011E-30  2.748E-19
5.105E+03  2.085E-30  2.824E-19
5.058E+03  2.163E-30  2.902E-19
5.012E+03  2.243E-30  2.982E-19
4.966E+03  2.326E-30  3.064E-19
4.920E+03  2.412E-30  3.148E-19
4.875E+03  2.502E-30  3.235E-19
4.831E+03  2.595E-30  3.325E-19
4.786E+03  2.691E-30  3.416E-19
4.742E+03  2.791E-30  3.511E-19
4.699E+03  2.895E-30  3.608E-19
4.656E+03  3.002E-30  3.708E-19
4.613E+03  3.114E-30  3.811E-19
4.571E+03  3.230E-30  3.916E-19
4.529E+03  3.350E-30  4.025E-19
4.487E+03  3.475E-30  4.137E-19
4.446E+03  3.605E-30  4.251E-19
4.406E+03  3.739E-30  4.370E-19
4.365E+03  3.879E-30  4.491E-19
4.325E+03  4.024E-30  4.616E-19
4.285E+03  4.174E-30  4.745E-19
4.246E+03  4.330E-30  4.877E-19
4.207E+03  4.492E-30  5.013E-19
4.169E+03  4.660E-30  5.153E-19
4.130E+03  4.834E-30  5.297E-19
4.093E+03  5.015E-30  5.444E-19
4.055E+03  5.203E-30  5.597E-19
4.018E+03  5.398E-30  5.753E-19
3.981E+03  5.600E-30  5.914E-19
3.945E+03  5.810E-30  6.079E-19
3.908E+03  6.027E-30  6.249E-19
3.873E+03  6.253E-30  6.423E-19
3.837E+03  6.488E-30  6.603E-19
3.802E+03  6.731E-30  6.788E-19
3.767E+03  6.984E-30  6.978E-19
3.733E+03  7.246E-30  7.174E-19
3.698E+03  7.518E-30  7.375E-19
3.664E+03  7.801E-30  7.583E-19
3.631E+03  8.095E-30  7.796E-19
3.597E+03  8.399E-30  8.015E-19
3.565E+03  8.716E-30  8.241E-19
3.532E+03  9.044E-30  8.473E-19
3.499E+03  9.385E-30  8.712E-19
3.467E+03  9.739E-30  8.957E-19
3.436E+03  1.011E-29  9.210E-19
3.404E+03  1.049E-29  9.470E-19
3.373E+03  1.088E-29  9.738E-19
3.342E+03  1.130E-29  1.001E-18
3.311E+03  1.172E-29  1.030E-18
3.281E+03  1.217E-29  1.059E-18
3.251E+03  1.263E-29  1.089E-18
3.221E+03  1.310E-29  1.120E-18
3.192E+03  1.360E-29  1.151E-18
3.162E+03  1.412E-29  1.184E-18
3.133E+03  1.465E-29  1.218E-18
3.105E+03  1.521E-29  1.252E-18
3.076E+03  1.578E-29  1.288E-18
3.048E+03  1.638E-29  1.325E-18
3.020E+03  1.701E-29  1.362E-18
2.992E+03  1.765E-29  1.401E-18
2.965E+03  1.832E-29  1.441E-18
2.938E+03  1.901E-29  1.482E-18
2.911E+03  1.973E-29  1.524E-18
2.884E+03  2.048E-29  1.567E-18
2.858E+03  2.126E-29  1.611E-18
2.831E+03  2.207E-29  1.657E-18
2.805E+03  2.290E-29  1.704E-18
2.780E+03  2.377E-29  1.753E-18
2.754E+03  2.468E-29  1.803E-18
2.729E+03  2.562E-29  1.854E-18
2.704E+03  2.659E-29  1.907E-18
2.679E+03  2.760E-29  1.962E-18
2.655E+03  2.865E-29  2.018E-18
2.630E+03  2.974E-29  2.075E-18
2.606E+03  3.088E-29  2.134E-18
2.582E+03  3.205E-29  2.196E-18
2.559E+03  3.328E-29  2.258E-18
2.535E+03  3.454E-29  2.323E-18
2.512E+03  3.586E-29  2.389E-18
2.489E+03  3.723E-29  2.458E-18
2.466E+03  3.865E-29  2.528E-18
2.443E+03  4.013E-29  2.601E-18
2.421E+03  4.166E-29  2.675E-18
2.399E+03  4.325E-29  2.752E-18
2.377E+03  4.491E-29  2.831E-18
2.355E+03  4.662E-29  2.913E-18
2.333E+03  4.841E-29  2.996E-18
2.312E+03  5.026E-29  3.082E-18
2.291E+03  5.218E-29  3.171E-18
2.270E+03  5.418E-29  3.262E-18
2.249E+03  5.625E-29  3.356E-18
2.228E+03  5.840E-29  3.452E-18
2.208E+03  6.064E-29  3.552E-18
2.188E+03  6.296E-29  3.654E-18
2.168E+03  6.538E-29  3.759E-18
2.148E+03  6.788E-29  3.867E-18
2.128E+03  7.048E-29  3.979E-18
2.109E+03  7.318E-29  4.093E-18
2.089E+03  7.598E-29  4.211E-18
2.070E+03  7.890E-29  4.332E-18
2.051E+03  8.192E-29  4.457E-18
2.032E+03  8.506E-29  4.586E-18
2.014E+03  8.832E-29  4.718E-18
1.995E+03  9.170E-29  4.854E-18
1.977E+03  9.522E-29  4.993E-18
1.959E+03  9.886E-29  5.137E-18
1.941E+03  1.026E-28  5.285E-18
1.923E+03  1.066E-28  5.437E-18
1.905E+03  1.107E-28  5.593E-18
1.888E+03  1.149E-28  5.755E-18
1.871E+03  1.193E-28  5.920E-18
1.854E+03  1.239E-28  6.091E-18
1.837E+03  1.286E-28  6.266E-18
1.820E+03  1.336E-28  6.446E-18
1.803E+03  1.387E-28  6.632E-18
1.786E+03  1.440E-28  6.823E-18
1.770E+03  1.495E-28  7.019E-18
1.754E+03  1.552E-28  7.221E-18
1.738E+03  1.612E-28  7.429E-18
1.722E+03  1.673E-28  7.643E-18
1.706E+03  1.737E-28  7.863E-18
1.690E+03  1.804E-28  8.089E-18
1.675E+03  1.873E-28  8.322E-18
1.660E+03  1.945E-28  8.561E-18
1.644E+03  2.019E-28  8.807E-18
1.629E+03  2.096E-28  9.060E-18
1.614E+03  2.176E-28  9.320E-18
1.600E+03  2.260E-28  9.588E-18
1.585E+03  2.346E-28  9.863E-18
1.570E+03  2.436E-28  1.015E-17
1.556E+03  2.529E-28  1.044E-17
1.542E+03  2.625E-28  1.074E-17
1.528E+03  2.725E-28  1.104E-17
1.514E+03  2.829E-28  1.136E-17
1.500E+03  2.937E-28  1.168E-17
1.486E+03  3.049E-28  1.202E-17
1.472E+03  3.166E-28  1.236E-17
1.459E+03  3.286E-28  1.272E-17
1.445E+03  3.412E-28  1.308E-17
1.432E+03  3.542E-28  1.345E-17
1.419E+03  3.676E-28  1.384E-17
1.406E+03  3.816E-28  1.423E-17
1.393E+03  3.962E-28  1.464E-17
1.380E+03  4.112E-28  1.506E-17
1.368E+03  4.269E-28  1.549E-17
1.355E+03  4.431E-28  1.593E-17
1.343E+03  4.599E-28  1.638E-17
1.330E+03  4.774E-28  1.685E-17
1.318E+03  4.955E-28  1.733E-17
1.306E+03  5.143E-28  1.782E-17
1.294E+03  5.338E-28  1.832E-17
1.282E+03  5.540E-28  1.884E-17
1.271E+03  5.750E-28  1.938E-17
1.259E+03  5.967E-28  1.993E-17
1.247E+03  6.192E-28  2.049E-17
1.236E+03  6.426E-28  2.107E-17
1.225E+03  6.669E-28  2.166E-17
1.213E+03  6.920E-28  2.227E-17
1.202E+03  7.181E-28  2.290E-17
1.191E+03  7.451E-28  2.354E-17
1.180E+03  7.731E-28  2.421E-17
1.169E+03  8.022E-28  2.489E-17
1.159E+03  8.323E-28  2.558E-17
1.148E+03  8.635E-28  2.630E-17
1.138E+03  8.959E-28  2.703E-17
1.127E+03  9.294E-28  2.779E-17
1.117E+03  9.642E-28  2.857E-17
1.107E+03  1.000E-27  2.936E-17
1.096E+03  1.038E-27  3.018E-17
1.086E+03  1.076E-27  3.102E-17
1.076E+03  1.116E-27  3.188E-17
1.067E+03  1.158E-27  3.276E-17
1.057E+03  1.201E-27  3.367E-17
1.047E+03  1.246E-27  3.460E-17
1.038E+03  1.292E-27  3.555E-17
1.028E+03  1.340E-27  3.653E-17
1.019E+03  1.389E-27  3.753E-17
1.009E+03  1.440E-27  3.856E-17
1.000E+03  1.494E-27  3.962E-17
9.908E+02  1.549E-27  4.070E-17
9.817E+02  1.606E-27  4.182E-17
9.727E+02  1.665E-27  4.296E-17
9.638E+02  1.726E-27  4.413E-17
9.550E+02  1.790E-27  4.534E-17
9.462E+02  1.855E-27  4.657E-17
9.376E+02  1.923E-27  4.783E-17
9.290E+02  1.994E-27  4.913E-17
9.204E+02  2.067E-27  5.046E-17
9.120E+02  2.142E-27  5.182E-17
9.036E+02  2.220E-27  5.321E-17
8.954E+02  2.301E-27  5.464E-17
8.872E+02  2.384E-27  5.610E-17
8.790E+02  2.470E-27  5.760E-17
8.710E+02  2.560E-27  5.914E-17
8.630E+02  2.652E-27  6.071E-17
8.551E+02  2.747E-27  6.232E-17
8.472E+02  2.846E-27  6.396E-17
8.395E+02  2.948E-27  6.565E-17
8.318E+02  3.054E-27  6.738E-17
8.241E+02  3.163E-27  6.915E-17
8.166E+02  3.276E-27  7.096E-17
8.091E+02  3.392E-27  7.281E-17
8.017E+02  3.513E-27  7.470E-17
7.943E+02  3.637E-27  7.664E-17
7.870E+02  3.766E-27  7.862E-17
7.798E+02  3.899E-27  8.065E-17
7.727E+02  4.036E-27  8.273E-17
7.656E+02  4.178E-27  8.485E-17
7.586E+02  4.325E-27  8.702E-17
7.516E+02  4.476E-27  8.925E-17
7.447E+02  4.633E-27  9.152E-17
7.379E+02  4.795E-27  9.386E-17
7.311E+02  4.963E-27  9.625E-17
7.244E+02  5.136E-27  9.870E-17
7.178E+02  5.315E-27  1.012E-16
7.112E+02  5.500E-27  1.038E-16
7.047E+02  5.692E-27  1.064E-16
6.982E+02  5.889E-27  1.091E-16
6.918E+02  6.093E-27  1.118E-16
6.855E+02  6.304E-27  1.146E-16
6.792E+02  6.521E-27  1.175E-16
6.730E+02  6.745E-27  1.204E-16
6.668E+02  6.977E-27  1.234E-16
6.607E+02  7.216E-27  1.265E-16
6.546E+02  7.463E-27  1.296E-16
6.486E+02  7.720E-27  1.328E-16
6.427E+02  7.984E-27  1.361E-16
6.368E+02  8.258E-27  1.395E-16
6.310E+02  8.540E-27  1.429E-16
6.252E+02  8.832E-27  1.465E-16
6.194E+02  9.133E-27  1.501E-16
6.138E+02  9.443E-27  1.537E-16
6.081E+02  9.764E-27  1.575E-16
6.026E+02  1.010E-26  1.614E-16
5.970E+02  1.044E-26  1.653E-16
5.916E+02  1.079E-26  1.693E-16
5.861E+02  1.115E-26  1.734E-16
5.808E+02  1.153E-26  1.776E-16
5.754E+02  1.192E-26  1.819E-16
5.702E+02  1.232E-26  1.863E-16
5.649E+02  1.273E-26  1.908E-16
5.598E+02  1.316E-26  1.953E-16
5.546E+02  1.360E-26  2.000E-16
5.495E+02  1.405E-26  2.048E-16
5.445E+02  1.452E-26  2.097E-16
5.395E+02  1.500E-26  2.146E-16
5.346E+02  1.549E-26  2.197E-16
5.297E+02  1.601E-26  2.249E-16
5.248E+02  1.653E-26  2.302E-16
5.200E+02  1.708E-26  2.356E-16
5.152E+02  1.764E-26  2.411E-16
5.105E+02  1.822E-26  2.467E-16
5.058E+02  1.881E-26  2.524E-16
5.012E+02  1.943E-26  2.583E-16
4.966E+02  2.006E-26  2.642E-16
4.920E+02  2.071E-26  2.703E-16
4.875E+02  2.138E-26  2.765E-16
4.831E+02  2.207E-26  2.828E-16
4.786E+02  2.278E-26  2.892E-16
4.742E+02  2.351E-26  2.958E-16
4.699E+02  2.426E-26  3.024E-16
4.656E+02  2.504E-26  3.092E-16
4.613E+02  2.584E-26  3.161E-16
4.571E+02  2.666E-26  3.232E-16
4.529E+02  2.750E-26  3.304E-16
4.487E+02  2.837E-26  3.377E-16
4.446E+02  2.926E-26  3.451E-16
4.406E+02  3.018E-26  3.526E-16
4.365E+02  3.112E-26  3.603E-16
4.325E+02  3.209E-26  3.681E-16
4.285E+02  3.308E-26  3.761E-16
4.246E+02  3.411E-26  3.841E-16
4.207E+02  3.516E-26  3.923E-16
4.169E+02  3.624E-26  4.007E-16
4.130E+02  3.734E-26  4.091E-16
4.093E+02  3.848E-26  4.178E-16
4.055E+02  3.965E-26  4.265E-16
4.018E+02  4.085E-26  4.354E-16
3.981E+02  4.208E-26  4.444E-16
3.945E+02  4.335E-26  4.536E-16
3.908E+02  4.465E-26  4.629E-16
3.873E+02  4.598E-26  4.723E-16
3.837E+02  4.735E-26  4.819E-16
3.802E+02  4.875E-26  4.916E-16
3.767E+02  5.018E-26  5.014E-16
3.733E+02  5.165E-26  5.114E-16
3.698E+02  5.316E-26  5.215E-16
3.664E+02  5.470E-26  5.317E-16
3.631E+02  5.629E-26  5.421E-16
3.597E+02  5.790E-26  5.525E-16
3.565E+02  5.956E-26  5.631E-16
3.532E+02  6.125E-26  5.739E-16
3.499E+02  6.299E-26  5.847E-16
3.467E+02  6.476E-26  5.957E-16
3.436E+02  6.658E-26  6.067E-16
3.404E+02  6.843E-26  6.179E-16
3.373E+02  7.033E-26  6.292E-16
3.342E+02  7.227E-26  6.406E-16
3.311E+02  7.425E-26  6.522E-16
3.281E+02  7.627E-26  6.638E-16
3.251E+02  7.833E-26  6.754E-16
3.221E+02  8.043E-26  6.872E-16
3.192E+02  8.258E-26  6.991E-16
3.162E+02  8.477E-26  7.111E-16
3.133E+02  8.700E-26  7.231E-16
3.105E+02  8.928E-26  7.352E-16
3.076E+02  9.160E-26  7.474E-16
3.048E+02  9.396E-26  7.597E-16
3.020E+02  9.637E-26  7.720E-16
2.992E+02  9.882E-26  7.843E-16
2.965E+02  1.013E-25  7.967E-16
2.938E+02  1.038E-25  8.092E-16
2.911E+02  1.064E-25  8.216E-16
2.884E+02  1.090E-25  8.341E-16
2.858E+02  1.117E-25  8.466E-16
2.831E+02  1.144E-25  8.592E-16
2.805E+02  1.171E-25  8.717E-16
2.780E+02  1.199E-25  8.842E-16
2.754E+02  1.227E-25  8.968E-16
2.729E+02  1.256E-25  9.094E-16
2.704E+02  1.286E-25  9.220E-16
2.679E+02  1.315E-25  9.347E-16
2.655E+02  1.345E-25  9.473E-16
2.630E+02  1.376E-25  9.598E-16
2.606E+02  1.407E-25  9.723E-16
2.582E+02  1.438E-25  9.848E-16
2.559E+02  1.469E-25  9.970E-16
2.535E+02  1.500E-25  1.009E-15
2.512E+02  1.532E-25  1.021E-15
2.489E+02  1.562E-25  1.031E-15
2.466E+02  1.592E-25  1.042E-15
2.443E+02  1.622E-25  1.051E-15
2.421E+02  1.651E-25  1.060E-15
2.399E+02  1.680E-25  1.069E-15
2.377E+02  1.709E-25  1.077E-15
2.355E+02  1.737E-25  1.085E-15
2.333E+02  1.765E-25  1.092E-15
2.312E+02  1.793E-25  1.099E-15
2.291E+02  1.820E-25  1.106E-15
2.270E+02  1.848E-25  1.113E-15
2.249E+02  1.876E-25  1.119E-15
2.228E+02  1.903E-25  1.125E-15
2.208E+02  1.931E-25  1.131E-15
2.188E+02  1.958E-25  1.136E-15
2.168E+02  1.984E-25  1.141E-15
2.148E+02  2.011E-25  1.146E-15
2.128E+02  2.037E-25  1.150E-15
2.109E+02  2.063E-25  1.154E-15
2.089E+02  2.089E-25  1.158E-15
2.070E+02  2.114E-25  1.161E-15
2.051E+02  2.139E-25  1.164E-15
2.032E+02  2.163E-25  1.166E-15
2.014E+02  2.187E-25  1.168E-15
1.995E+02  2.210E-25  1.170E-15
1.977E+02  2.233E-25  1.171E-15
1.959E+02  2.256E-25  1.172E-15
1.941E+02  2.278E-25  1.173E-15
1.923E+02  2.299E-25  1.173E-15
1.905E+02  2.320E-25  1.172E-15
1.888E+02  2.340E-25  1.172E-15
1.871E+02  2.359E-25  1.171E-15
1.854E+02  2.378E-25  1.169E-15
1.837E+02  2.396E-25  1.167E-15
1.820E+02  2.414E-25  1.165E-15
1.803E+02  2.431E-25  1.162E-15
1.786E+02  2.447E-25  1.159E-15
1.770E+02  2.462E-25  1.156E-15
1.754E+02  2.477E-25  1.152E-15
1.738E+02  2.491E-25  1.148E-15
1.722E+02  2.505E-25  1.144E-15
1.706E+02  2.517E-25  1.139E-15
1.690E+02  2.529E-25  1.134E-15
1.675E+02  2.540E-25  1.129E-15
1.660E+02  2.551E-25  1.123E-15
1.644E+02  2.561E-25  1.117E-15
1.629E+02  2.570E-25  1.111E-15
1.614E+02  2.579E-25  1.104E-15
1.600E+02  2.587E-25  1.098E-15
1.585E+02  2.594E-25  1.091E-15
1.570E+02  2.601E-25  1.084E-15
1.556E+02  2.608E-25  1.076E-15
1.542E+02  2.614E-25  1.069E-15
1.528E+02  2.620E-25  1.062E-15
1.514E+02  2.625E-25  1.054E-15
1.500E+02  2.631E-25  1.046E-15
1.486E+02  2.635E-25  1.039E-15
1.472E+02  2.640E-25  1.031E-15
1.459E+02  2.643E-25  1.023E-15
1.445E+02  2.646E-25  1.014E-15
1.432E+02  2.646E-25  1.005E-15
1.419E+02  2.644E-25  9.953E-16
1.406E+02  2.638E-25  9.839E-16
1.393E+02  2.627E-25  9.709E-16
1.380E+02  2.612E-25  9.564E-16
1.368E+02  2.592E-25  9.404E-16
1.355E+02  2.568E-25  9.233E-16
1.343E+02  2.542E-25  9.055E-16
1.330E+02  2.515E-25  8.875E-16
1.318E+02  2.486E-25  8.695E-16
1.306E+02  2.458E-25  8.516E-16
1.294E+02  2.429E-25  8.340E-16
1.282E+02  2.401E-25  8.167E-16
1.271E+02  2.373E-25  7.997E-16
1.259E+02  2.345E-25  7.831E-16
1.247E+02  2.317E-25  7.667E-16
1.236E+02  2.289E-25  7.506E-16
1.225E+02  2.262E-25  7.347E-16
1.213E+02  2.234E-25  7.191E-16
1.202E+02  2.207E-25  7.038E-16
1.191E+02  2.179E-25  6.886E-16
1.180E+02  2.151E-25  6.735E-16
1.169E+02  2.123E-25  6.587E-16
1.159E+02  2.095E-25  6.439E-16
1.148E+02  2.066E-25  6.293E-16
1.138E+02  2.038E-25  6.150E-16
1.127E+02  2.009E-25  6.008E-16
1.117E+02  1.981E-25  5.869E-16
1.107E+02  1.953E-25  5.732E-16
1.096E+02  1.924E-25  5.597E-16
1.086E+02  1.896E-25  5.463E-16
1.076E+02  1.867E-25  5.331E-16
1.067E+02  1.838E-25  5.201E-16
1.057E+02  1.810E-25  5.073E-16
1.047E+02  1.781E-25  4.947E-16
1.038E+02  1.753E-25  4.823E-16
1.028E+02  1.724E-25  4.701E-16
1.019E+02  1.695E-25  4.580E-16
1.009E+02  1.666E-25  4.461E-16
1.000E+02  1.638E-25  4.344E-16
9.908E+01  1.609E-25  4.229E-16
9.817E+01  1.581E-25  4.116E-16
9.727E+01  1.552E-25  4.005E-16
9.638E+01  1.524E-25  3.897E-16
9.550E+01  1.496E-25  3.791E-16
9.462E+01  1.469E-25  3.686E-16
9.376E+01  1.441E-25  3.584E-16
9.290E+01  1.414E-25  3.485E-16
9.204E+01  1.387E-25  3.387E-16
9.120E+01  1.361E-25  3.292E-16
9.036E+01  1.335E-25  3.199E-16
8.954E+01  1.309E-25  3.108E-16
8.872E+01  1.283E-25  3.020E-16
8.790E+01  1.258E-25  2.933E-16
8.710E+01  1.233E-25  2.849E-16
8.630E+01  1.209E-25  2.768E-16
8.551E+01  1.185E-25  2.688E-16
8.472E+01  1.161E-25  2.610E-16
8.395E+01  1.138E-25  2.535E-16
8.318E+01  1.116E-25  2.462E-16
8.241E+01  1.094E-25  2.391E-16
8.166E+01  1.072E-25  2.323E-16
8.091E+01  1.051E-25  2.256E-16
8.017E+01  1.031E-25  2.192E-16
7.943E+01  1.011E-25  2.130E-16
7.870E+01  9.912E-26  2.069E-16
7.798E+01  9.722E-26  2.011E-16
7.727E+01  9.537E-26  1.955E-16
7.656E+01  9.357E-26  1.900E-16
7.586E+01  9.182E-26  1.848E-16
7.516E+01  9.013E-26  1.797E-16
7.447E+01  8.848E-26  1.748E-16
7.379E+01  8.685E-26  1.700E-16
7.311E+01  8.530E-26  1.654E-16
7.244E+01  8.378E-26  1.610E-16
7.178E+01  8.232E-26  1.567E-16
7.112E+01  8.092E-26  1.527E-16
7.047E+01  7.959E-26  1.488E-16
6.982E+01  7.830E-26  1.450E-16
6.918E+01  7.706E-26  1.414E-16
6.855E+01  7.587E-26  1.380E-16
6.792E+01  7.473E-26  1.346E-16
6.730E+01  7.363E-26  1.314E-16
6.668E+01  7.258E-26  1.284E-16
6.607E+01  7.158E-26  1.254E-16
6.546E+01  7.060E-26  1.226E-16
6.486E+01  6.968E-26  1.199E-16
6.427E+01  6.881E-26  1.173E-16
6.368E+01  6.798E-26  1.148E-16
6.310E+01  6.717E-26  1.124E-16
6.252E+01  6.643E-26  1.102E-16
6.194E+01  6.572E-26  1.080E-16
6.138E+01  6.505E-26  1.059E-16
6.081E+01  6.442E-26  1.039E-16
6.026E+01  6.381E-26  1.020E-16
5.970E+01  6.323E-26  1.001E-16
5.916E+01  6.270E-26  9.839E-17
5.861E+01  6.219E-26  9.669E-17
5.808E+01  6.171E-26  9.506E-17
5.754E+01  6.126E-26  9.351E-17
5.702E+01  6.085E-26  9.203E-17
5.649E+01  6.046E-26  9.060E-17
5.598E+01  6.010E-26  8.924E-17
5.546E+01  5.976E-26  8.792E-17
5.495E+01  5.946E-26  8.667E-17
5.445E+01  5.917E-26  8.546E-17
5.395E+01  5.890E-26  8.430E-17
5.346E+01  5.866E-26  8.318E-17
5.297E+01  5.843E-26  8.209E-17
5.248E+01  5.822E-26  8.105E-17
5.200E+01  5.803E-26  8.004E-17
5.152E+01  5.785E-26  7.907E-17
5.105E+01  5.768E-26  7.810E-17
5.058E+01  5.753E-26  7.720E-17
5.012E+01  5.739E-26  7.630E-17
4.966E+01  5.727E-26  7.544E-17
