Dust emission from Draine & Li (2007): ApJ 657, 810-837
================================================================
        11 = grain model
 4.000E-08 4.000E-01 0.000E+00 = a_01 (cm) , sigma_1 , b_C1/0.92
 2.500E-07 4.000E-01 0.000E+00 = a_02 (cm) , sigma_2 , b_C2/0.92
 2.000E+00 1.000E+04 2.000E+00 = Umin , Umax, beta (dN/dU propto U^{-beta})
 1.704E+01 = <U> 
     mmp83 = radfield
 9.408E-24 = power/H (erg s-1)
 band   nu*P_nu(band) j_nu(band)
 (um)   (erg s-1 H-1)(Jy cm2 sr-1 H-1)
1.270E+00  9.570E-27  3.224E-19 COBE-DIRBE
2.220E+00  1.604E-26  9.446E-19 COBE-DIRBE
3.530E+00  2.743E-26  2.568E-18 COBE-DIRBE
4.880E+00  2.072E-26  2.682E-18 COBE-DIRBE
1.229E+01  2.990E-25  9.747E-17 COBE-DIRBE
2.079E+01  1.177E-24  6.493E-16 COBE-DIRBE
5.599E+01  5.620E-24  8.347E-15 COBE-DIRBE
9.770E+01  4.318E-24  1.119E-14 COBE-DIRBE
1.479E+02  2.321E-24  9.104E-15 COBE-DIRBE
2.479E+02  6.047E-25  3.976E-15 COBE-DIRBE
1.200E+01  2.758E-25  8.778E-17 IRAS
2.500E+01  1.683E-24  1.116E-15 IRAS
6.000E+01  5.556E-24  8.842E-15 IRAS
1.000E+02  4.201E-24  1.114E-14 IRAS
3.550E+00  2.930E-26  2.759E-18 SST-IRAC
4.493E+00  1.944E-26  2.317E-18 SST-IRAC
5.731E+00  4.569E-26  6.946E-18 SST-IRAC
7.872E+00  1.926E-25  4.023E-17 SST-IRAC
2.368E+01  1.608E-24  1.010E-15 SST-MIPS
7.142E+01  4.986E-24  9.447E-15 SST-MIPS
1.559E+02  1.932E-24  7.990E-15 SST-MIPS
1.600E+01  4.276E-25  1.815E-16 SST-IRSPU
2.200E+01  1.507E-24  8.794E-16 SST-IRSPU











lambda    nu*dP/dnu     j_nu
 (um)   (erg s-1 H-1)(Jy cm2 sr-1 H-1)
1.000E+04  1.628E-31  4.317E-20
9.908E+03  1.687E-31  4.433E-20
9.817E+03  1.748E-31  4.552E-20
9.727E+03  1.811E-31  4.674E-20
9.638E+03  1.877E-31  4.799E-20
9.550E+03  1.945E-31  4.927E-20
9.462E+03  2.016E-31  5.059E-20
9.376E+03  2.089E-31  5.195E-20
9.290E+03  2.165E-31  5.334E-20
9.204E+03  2.243E-31  5.477E-20
9.120E+03  2.325E-31  5.623E-20
9.036E+03  2.409E-31  5.774E-20
8.954E+03  2.496E-31  5.928E-20
8.872E+03  2.586E-31  6.085E-20
8.790E+03  2.679E-31  6.247E-20
8.710E+03  2.776E-31  6.413E-20
8.630E+03  2.876E-31  6.584E-20
8.551E+03  2.980E-31  6.759E-20
8.472E+03  3.088E-31  6.939E-20
8.395E+03  3.199E-31  7.124E-20
8.318E+03  3.315E-31  7.314E-20
8.241E+03  3.435E-31  7.510E-20
8.166E+03  3.560E-31  7.711E-20
8.091E+03  3.689E-31  7.917E-20
8.017E+03  3.823E-31  8.129E-20
7.943E+03  3.962E-31  8.347E-20
7.870E+03  4.106E-31  8.571E-20
7.798E+03  4.255E-31  8.801E-20
7.727E+03  4.410E-31  9.038E-20
7.656E+03  4.570E-31  9.281E-20
7.586E+03  4.737E-31  9.531E-20
7.516E+03  4.909E-31  9.788E-20
7.447E+03  5.088E-31  1.005E-19
7.379E+03  5.274E-31  1.032E-19
7.311E+03  5.466E-31  1.060E-19
7.244E+03  5.666E-31  1.089E-19
7.178E+03  5.873E-31  1.118E-19
7.112E+03  6.088E-31  1.149E-19
7.047E+03  6.311E-31  1.180E-19
6.982E+03  6.542E-31  1.212E-19
6.918E+03  6.781E-31  1.244E-19
6.855E+03  7.029E-31  1.278E-19
6.792E+03  7.286E-31  1.313E-19
6.730E+03  7.553E-31  1.348E-19
6.668E+03  7.829E-31  1.385E-19
6.607E+03  8.117E-31  1.422E-19
6.546E+03  8.414E-31  1.461E-19
6.486E+03  8.723E-31  1.501E-19
6.427E+03  9.044E-31  1.542E-19
6.368E+03  9.376E-31  1.584E-19
6.310E+03  9.721E-31  1.627E-19
6.252E+03  1.008E-30  1.671E-19
6.194E+03  1.045E-30  1.717E-19
6.138E+03  1.084E-30  1.764E-19
6.081E+03  1.124E-30  1.812E-19
6.026E+03  1.165E-30  1.862E-19
5.970E+03  1.208E-30  1.913E-19
5.916E+03  1.253E-30  1.966E-19
5.861E+03  1.299E-30  2.020E-19
5.808E+03  1.347E-30  2.075E-19
5.754E+03  1.397E-30  2.132E-19
5.702E+03  1.449E-30  2.191E-19
5.649E+03  1.502E-30  2.251E-19
5.598E+03  1.558E-30  2.313E-19
5.546E+03  1.616E-30  2.377E-19
5.495E+03  1.676E-30  2.443E-19
5.445E+03  1.738E-30  2.511E-19
5.395E+03  1.803E-30  2.580E-19
5.346E+03  1.870E-30  2.651E-19
5.297E+03  1.939E-30  2.725E-19
5.248E+03  2.012E-30  2.800E-19
5.200E+03  2.087E-30  2.878E-19
5.152E+03  2.164E-30  2.958E-19
5.105E+03  2.245E-30  3.040E-19
5.058E+03  2.329E-30  3.125E-19
5.012E+03  2.416E-30  3.212E-19
4.966E+03  2.506E-30  3.301E-19
4.920E+03  2.600E-30  3.393E-19
4.875E+03  2.697E-30  3.487E-19
4.831E+03  2.798E-30  3.585E-19
4.786E+03  2.902E-30  3.685E-19
4.742E+03  3.011E-30  3.788E-19
4.699E+03  3.124E-30  3.894E-19
4.656E+03  3.241E-30  4.003E-19
4.613E+03  3.362E-30  4.115E-19
4.571E+03  3.489E-30  4.230E-19
4.529E+03  3.620E-30  4.349E-19
4.487E+03  3.756E-30  4.471E-19
4.446E+03  3.897E-30  4.596E-19
4.406E+03  4.044E-30  4.726E-19
4.365E+03  4.196E-30  4.859E-19
4.325E+03  4.354E-30  4.996E-19
4.285E+03  4.519E-30  5.137E-19
4.246E+03  4.689E-30  5.282E-19
4.207E+03  4.866E-30  5.431E-19
4.169E+03  5.050E-30  5.584E-19
4.130E+03  5.241E-30  5.742E-19
4.093E+03  5.439E-30  5.905E-19
4.055E+03  5.645E-30  6.072E-19
4.018E+03  5.859E-30  6.244E-19
3.981E+03  6.081E-30  6.421E-19
3.945E+03  6.311E-30  6.603E-19
3.908E+03  6.550E-30  6.790E-19
3.873E+03  6.798E-30  6.983E-19
3.837E+03  7.056E-30  7.182E-19
3.802E+03  7.324E-30  7.386E-19
3.767E+03  7.602E-30  7.596E-19
3.733E+03  7.891E-30  7.813E-19
3.698E+03  8.191E-30  8.036E-19
3.664E+03  8.503E-30  8.265E-19
3.631E+03  8.827E-30  8.501E-19
3.597E+03  9.164E-30  8.745E-19
3.565E+03  9.513E-30  8.995E-19
3.532E+03  9.877E-30  9.253E-19
3.499E+03  1.025E-29  9.518E-19
3.467E+03  1.065E-29  9.792E-19
3.436E+03  1.105E-29  1.007E-18
3.404E+03  1.148E-29  1.036E-18
3.373E+03  1.192E-29  1.066E-18
3.342E+03  1.237E-29  1.097E-18
3.311E+03  1.285E-29  1.129E-18
3.281E+03  1.334E-29  1.161E-18
3.251E+03  1.386E-29  1.195E-18
3.221E+03  1.439E-29  1.229E-18
3.192E+03  1.494E-29  1.265E-18
3.162E+03  1.552E-29  1.302E-18
3.133E+03  1.611E-29  1.339E-18
3.105E+03  1.674E-29  1.378E-18
3.076E+03  1.738E-29  1.418E-18
3.048E+03  1.805E-29  1.460E-18
3.020E+03  1.875E-29  1.502E-18
2.992E+03  1.947E-29  1.546E-18
2.965E+03  2.022E-29  1.591E-18
2.938E+03  2.100E-29  1.637E-18
2.911E+03  2.181E-29  1.684E-18
2.884E+03  2.266E-29  1.733E-18
2.858E+03  2.353E-29  1.784E-18
2.831E+03  2.444E-29  1.836E-18
2.805E+03  2.539E-29  1.889E-18
2.780E+03  2.637E-29  1.944E-18
2.754E+03  2.739E-29  2.001E-18
2.729E+03  2.846E-29  2.060E-18
2.704E+03  2.956E-29  2.120E-18
2.679E+03  3.071E-29  2.182E-18
2.655E+03  3.190E-29  2.246E-18
2.630E+03  3.314E-29  2.312E-18
2.606E+03  3.443E-29  2.380E-18
2.582E+03  3.577E-29  2.450E-18
2.559E+03  3.717E-29  2.522E-18
2.535E+03  3.862E-29  2.597E-18
2.512E+03  4.012E-29  2.673E-18
2.489E+03  4.169E-29  2.752E-18
2.466E+03  4.332E-29  2.834E-18
2.443E+03  4.501E-29  2.917E-18
2.421E+03  4.677E-29  3.004E-18
2.399E+03  4.860E-29  3.092E-18
2.377E+03  5.050E-29  3.184E-18
2.355E+03  5.248E-29  3.279E-18
2.333E+03  5.454E-29  3.376E-18
2.312E+03  5.668E-29  3.476E-18
2.291E+03  5.890E-29  3.579E-18
2.270E+03  6.121E-29  3.686E-18
2.249E+03  6.362E-29  3.795E-18
2.228E+03  6.612E-29  3.908E-18
2.208E+03  6.872E-29  4.025E-18
2.188E+03  7.142E-29  4.145E-18
2.168E+03  7.423E-29  4.268E-18
2.148E+03  7.715E-29  4.396E-18
2.128E+03  8.019E-29  4.527E-18
2.109E+03  8.335E-29  4.662E-18
2.089E+03  8.664E-29  4.802E-18
2.070E+03  9.006E-29  4.945E-18
2.051E+03  9.361E-29  5.093E-18
2.032E+03  9.730E-29  5.246E-18
2.014E+03  1.011E-28  5.403E-18
1.995E+03  1.051E-28  5.564E-18
1.977E+03  1.093E-28  5.731E-18
1.959E+03  1.136E-28  5.903E-18
1.941E+03  1.181E-28  6.080E-18
1.923E+03  1.228E-28  6.262E-18
1.905E+03  1.276E-28  6.450E-18
1.888E+03  1.327E-28  6.644E-18
1.871E+03  1.379E-28  6.843E-18
1.854E+03  1.434E-28  7.049E-18
1.837E+03  1.490E-28  7.261E-18
1.820E+03  1.550E-28  7.479E-18
1.803E+03  1.611E-28  7.705E-18
1.786E+03  1.675E-28  7.937E-18
1.770E+03  1.741E-28  8.176E-18
1.754E+03  1.810E-28  8.422E-18
1.738E+03  1.882E-28  8.676E-18
1.722E+03  1.957E-28  8.937E-18
1.706E+03  2.034E-28  9.207E-18
1.690E+03  2.115E-28  9.484E-18
1.675E+03  2.199E-28  9.771E-18
1.660E+03  2.286E-28  1.007E-17
1.644E+03  2.377E-28  1.037E-17
1.629E+03  2.472E-28  1.068E-17
1.614E+03  2.570E-28  1.101E-17
1.600E+03  2.672E-28  1.134E-17
1.585E+03  2.778E-28  1.168E-17
1.570E+03  2.889E-28  1.203E-17
1.556E+03  3.003E-28  1.240E-17
1.542E+03  3.123E-28  1.277E-17
1.528E+03  3.247E-28  1.316E-17
1.514E+03  3.376E-28  1.355E-17
1.500E+03  3.510E-28  1.396E-17
1.486E+03  3.650E-28  1.439E-17
1.472E+03  3.795E-28  1.482E-17
1.459E+03  3.946E-28  1.527E-17
1.445E+03  4.103E-28  1.573E-17
1.432E+03  4.266E-28  1.621E-17
1.419E+03  4.436E-28  1.670E-17
1.406E+03  4.613E-28  1.720E-17
1.393E+03  4.797E-28  1.773E-17
1.380E+03  4.988E-28  1.826E-17
1.368E+03  5.186E-28  1.882E-17
1.355E+03  5.393E-28  1.938E-17
1.343E+03  5.607E-28  1.997E-17
1.330E+03  5.830E-28  2.058E-17
1.318E+03  6.062E-28  2.120E-17
1.306E+03  6.304E-28  2.184E-17
1.294E+03  6.554E-28  2.250E-17
1.282E+03  6.815E-28  2.318E-17
1.271E+03  7.086E-28  2.388E-17
1.259E+03  7.368E-28  2.460E-17
1.247E+03  7.661E-28  2.535E-17
1.236E+03  7.965E-28  2.611E-17
1.225E+03  8.282E-28  2.690E-17
1.213E+03  8.611E-28  2.772E-17
1.202E+03  8.953E-28  2.855E-17
1.191E+03  9.308E-28  2.941E-17
1.180E+03  9.678E-28  3.030E-17
1.169E+03  1.006E-27  3.121E-17
1.159E+03  1.046E-27  3.215E-17
1.148E+03  1.088E-27  3.312E-17
1.138E+03  1.131E-27  3.412E-17
1.127E+03  1.176E-27  3.515E-17
1.117E+03  1.222E-27  3.621E-17
1.107E+03  1.270E-27  3.729E-17
1.096E+03  1.321E-27  3.841E-17
1.086E+03  1.373E-27  3.957E-17
1.076E+03  1.427E-27  4.076E-17
1.067E+03  1.484E-27  4.198E-17
1.057E+03  1.542E-27  4.324E-17
1.047E+03  1.603E-27  4.453E-17
1.038E+03  1.667E-27  4.586E-17
1.028E+03  1.732E-27  4.724E-17
1.019E+03  1.801E-27  4.865E-17
1.009E+03  1.871E-27  5.010E-17
1.000E+03  1.945E-27  5.160E-17
9.908E+02  2.022E-27  5.314E-17
9.817E+02  2.101E-27  5.473E-17
9.727E+02  2.184E-27  5.636E-17
9.638E+02  2.270E-27  5.804E-17
9.550E+02  2.360E-27  5.977E-17
9.462E+02  2.452E-27  6.155E-17
9.376E+02  2.549E-27  6.339E-17
9.290E+02  2.649E-27  6.527E-17
9.204E+02  2.753E-27  6.721E-17
9.120E+02  2.861E-27  6.920E-17
9.036E+02  2.973E-27  7.126E-17
8.954E+02  3.089E-27  7.337E-17
8.872E+02  3.210E-27  7.553E-17
8.790E+02  3.335E-27  7.776E-17
8.710E+02  3.465E-27  8.006E-17
8.630E+02  3.600E-27  8.241E-17
8.551E+02  3.740E-27  8.484E-17
8.472E+02  3.886E-27  8.733E-17
8.395E+02  4.037E-27  8.989E-17
8.318E+02  4.193E-27  9.252E-17
8.241E+02  4.356E-27  9.523E-17
8.166E+02  4.525E-27  9.801E-17
8.091E+02  4.700E-27  1.009E-16
8.017E+02  4.881E-27  1.038E-16
7.943E+02  5.070E-27  1.068E-16
7.870E+02  5.265E-27  1.099E-16
7.798E+02  5.468E-27  1.131E-16
7.727E+02  5.679E-27  1.164E-16
7.656E+02  5.897E-27  1.198E-16
7.586E+02  6.123E-27  1.232E-16
7.516E+02  6.358E-27  1.268E-16
7.447E+02  6.603E-27  1.304E-16
7.379E+02  6.857E-27  1.342E-16
7.311E+02  7.120E-27  1.381E-16
7.244E+02  7.394E-27  1.421E-16
7.178E+02  7.678E-27  1.462E-16
7.112E+02  7.973E-27  1.504E-16
7.047E+02  8.279E-27  1.548E-16
6.982E+02  8.597E-27  1.592E-16
6.918E+02  8.926E-27  1.638E-16
6.855E+02  9.269E-27  1.685E-16
6.792E+02  9.624E-27  1.734E-16
6.730E+02  9.991E-27  1.784E-16
6.668E+02  1.037E-26  1.835E-16
6.607E+02  1.077E-26  1.887E-16
6.546E+02  1.118E-26  1.941E-16
6.486E+02  1.161E-26  1.997E-16
6.427E+02  1.205E-26  2.055E-16
6.368E+02  1.252E-26  2.114E-16
6.310E+02  1.300E-26  2.175E-16
6.252E+02  1.349E-26  2.238E-16
6.194E+02  1.401E-26  2.302E-16
6.138E+02  1.455E-26  2.369E-16
6.081E+02  1.511E-26  2.437E-16
6.026E+02  1.569E-26  2.507E-16
5.970E+02  1.629E-26  2.579E-16
5.916E+02  1.691E-26  2.653E-16
5.861E+02  1.756E-26  2.730E-16
5.808E+02  1.823E-26  2.808E-16
5.754E+02  1.893E-26  2.889E-16
5.702E+02  1.965E-26  2.972E-16
5.649E+02  2.040E-26  3.058E-16
5.598E+02  2.118E-26  3.145E-16
5.546E+02  2.199E-26  3.236E-16
5.495E+02  2.284E-26  3.329E-16
5.445E+02  2.371E-26  3.424E-16
5.395E+02  2.462E-26  3.523E-16
5.346E+02  2.556E-26  3.624E-16
5.297E+02  2.653E-26  3.728E-16
5.248E+02  2.755E-26  3.835E-16
5.200E+02  2.860E-26  3.945E-16
5.152E+02  2.969E-26  4.058E-16
5.105E+02  3.083E-26  4.174E-16
5.058E+02  3.200E-26  4.294E-16
5.012E+02  3.322E-26  4.417E-16
4.966E+02  3.449E-26  4.543E-16
4.920E+02  3.580E-26  4.673E-16
4.875E+02  3.717E-26  4.806E-16
4.831E+02  3.858E-26  4.944E-16
4.786E+02  4.005E-26  5.085E-16
4.742E+02  4.157E-26  5.230E-16
4.699E+02  4.315E-26  5.378E-16
4.656E+02  4.479E-26  5.532E-16
4.613E+02  4.649E-26  5.689E-16
4.571E+02  4.826E-26  5.851E-16
4.529E+02  5.009E-26  6.017E-16
4.487E+02  5.198E-26  6.188E-16
4.446E+02  5.395E-26  6.363E-16
4.406E+02  5.599E-26  6.543E-16
4.365E+02  5.811E-26  6.728E-16
4.325E+02  6.030E-26  6.918E-16
4.285E+02  6.258E-26  7.114E-16
4.246E+02  6.494E-26  7.315E-16
4.207E+02  6.739E-26  7.521E-16
4.169E+02  6.993E-26  7.733E-16
4.130E+02  7.256E-26  7.950E-16
4.093E+02  7.529E-26  8.173E-16
4.055E+02  7.812E-26  8.403E-16
4.018E+02  8.106E-26  8.639E-16
3.981E+02  8.410E-26  8.881E-16
3.945E+02  8.725E-26  9.130E-16
3.908E+02  9.053E-26  9.385E-16
3.873E+02  9.392E-26  9.648E-16
3.837E+02  9.744E-26  9.918E-16
3.802E+02  1.011E-25  1.019E-15
3.767E+02  1.049E-25  1.048E-15
3.733E+02  1.088E-25  1.077E-15
3.698E+02  1.128E-25  1.107E-15
3.664E+02  1.170E-25  1.138E-15
3.631E+02  1.214E-25  1.169E-15
3.597E+02  1.259E-25  1.201E-15
3.565E+02  1.306E-25  1.234E-15
3.532E+02  1.354E-25  1.268E-15
3.499E+02  1.404E-25  1.303E-15
3.467E+02  1.456E-25  1.339E-15
3.436E+02  1.510E-25  1.376E-15
3.404E+02  1.565E-25  1.414E-15
3.373E+02  1.623E-25  1.452E-15
3.342E+02  1.683E-25  1.492E-15
3.311E+02  1.745E-25  1.532E-15
3.281E+02  1.808E-25  1.574E-15
3.251E+02  1.874E-25  1.616E-15
3.221E+02  1.943E-25  1.660E-15
3.192E+02  2.014E-25  1.705E-15
3.162E+02  2.087E-25  1.751E-15
3.133E+02  2.163E-25  1.797E-15
3.105E+02  2.241E-25  1.846E-15
3.076E+02  2.322E-25  1.895E-15
3.048E+02  2.406E-25  1.945E-15
3.020E+02  2.493E-25  1.997E-15
2.992E+02  2.583E-25  2.050E-15
2.965E+02  2.675E-25  2.104E-15
2.938E+02  2.771E-25  2.159E-15
2.911E+02  2.870E-25  2.216E-15
2.884E+02  2.972E-25  2.274E-15
2.858E+02  3.078E-25  2.333E-15
2.831E+02  3.188E-25  2.394E-15
2.805E+02  3.300E-25  2.456E-15
2.780E+02  3.417E-25  2.520E-15
2.754E+02  3.538E-25  2.584E-15
2.729E+02  3.662E-25  2.651E-15
2.704E+02  3.791E-25  2.719E-15
2.679E+02  3.925E-25  2.789E-15
2.655E+02  4.063E-25  2.861E-15
2.630E+02  4.205E-25  2.934E-15
2.606E+02  4.352E-25  3.009E-15
2.582E+02  4.504E-25  3.085E-15
2.559E+02  4.659E-25  3.162E-15
2.535E+02  4.819E-25  3.241E-15
2.512E+02  4.983E-25  3.320E-15
2.489E+02  5.148E-25  3.399E-15
2.466E+02  5.314E-25  3.476E-15
2.443E+02  5.484E-25  3.554E-15
2.421E+02  5.656E-25  3.632E-15
2.399E+02  5.832E-25  3.711E-15
2.377E+02  6.009E-25  3.789E-15
2.355E+02  6.190E-25  3.867E-15
2.333E+02  6.376E-25  3.946E-15
2.312E+02  6.566E-25  4.027E-15
2.291E+02  6.761E-25  4.108E-15
2.270E+02  6.960E-25  4.191E-15
2.249E+02  7.165E-25  4.274E-15
2.228E+02  7.374E-25  4.359E-15
2.208E+02  7.588E-25  4.444E-15
2.188E+02  7.807E-25  4.531E-15
2.168E+02  8.032E-25  4.618E-15
2.148E+02  8.261E-25  4.707E-15
2.128E+02  8.496E-25  4.796E-15
2.109E+02  8.735E-25  4.886E-15
2.089E+02  8.980E-25  4.977E-15
2.070E+02  9.230E-25  5.068E-15
2.051E+02  9.484E-25  5.160E-15
2.032E+02  9.745E-25  5.254E-15
2.014E+02  1.001E-24  5.347E-15
1.995E+02  1.028E-24  5.442E-15
1.977E+02  1.056E-24  5.537E-15
1.959E+02  1.084E-24  5.633E-15
1.941E+02  1.113E-24  5.730E-15
1.923E+02  1.142E-24  5.827E-15
1.905E+02  1.172E-24  5.924E-15
1.888E+02  1.203E-24  6.023E-15
1.871E+02  1.234E-24  6.121E-15
1.854E+02  1.265E-24  6.221E-15
1.837E+02  1.297E-24  6.321E-15
1.820E+02  1.330E-24  6.421E-15
1.803E+02  1.364E-24  6.522E-15
1.786E+02  1.398E-24  6.623E-15
1.770E+02  1.432E-24  6.724E-15
1.754E+02  1.467E-24  6.826E-15
1.738E+02  1.503E-24  6.928E-15
1.722E+02  1.539E-24  7.030E-15
1.706E+02  1.576E-24  7.133E-15
1.690E+02  1.614E-24  7.237E-15
1.675E+02  1.652E-24  7.340E-15
1.660E+02  1.691E-24  7.444E-15
1.644E+02  1.731E-24  7.548E-15
1.629E+02  1.771E-24  7.653E-15
1.614E+02  1.812E-24  7.758E-15
1.600E+02  1.853E-24  7.864E-15
1.585E+02  1.896E-24  7.970E-15
1.570E+02  1.939E-24  8.077E-15
1.556E+02  1.983E-24  8.185E-15
1.542E+02  2.028E-24  8.293E-15
1.528E+02  2.073E-24  8.402E-15
1.514E+02  2.120E-24  8.512E-15
1.500E+02  2.167E-24  8.622E-15
1.486E+02  2.216E-24  8.735E-15
1.472E+02  2.265E-24  8.847E-15
1.459E+02  2.316E-24  8.960E-15
1.445E+02  2.366E-24  9.072E-15
1.432E+02  2.417E-24  9.182E-15
1.419E+02  2.468E-24  9.288E-15
1.406E+02  2.517E-24  9.388E-15
1.393E+02  2.565E-24  9.480E-15
1.380E+02  2.612E-24  9.563E-15
1.368E+02  2.656E-24  9.637E-15
1.355E+02  2.700E-24  9.705E-15
1.343E+02  2.742E-24  9.767E-15
1.330E+02  2.784E-24  9.825E-15
1.318E+02  2.826E-24  9.881E-15
1.306E+02  2.868E-24  9.936E-15
1.294E+02  2.910E-24  9.991E-15
1.282E+02  2.954E-24  1.005E-14
1.271E+02  2.997E-24  1.010E-14
1.259E+02  3.041E-24  1.016E-14
1.247E+02  3.086E-24  1.021E-14
1.236E+02  3.131E-24  1.027E-14
1.225E+02  3.177E-24  1.032E-14
1.213E+02  3.223E-24  1.037E-14
1.202E+02  3.270E-24  1.043E-14
1.191E+02  3.316E-24  1.048E-14
1.180E+02  3.363E-24  1.053E-14
1.169E+02  3.410E-24  1.058E-14
1.159E+02  3.457E-24  1.063E-14
1.148E+02  3.504E-24  1.067E-14
1.138E+02  3.551E-24  1.072E-14
1.127E+02  3.598E-24  1.076E-14
1.117E+02  3.646E-24  1.080E-14
1.107E+02  3.694E-24  1.084E-14
1.096E+02  3.741E-24  1.088E-14
1.086E+02  3.789E-24  1.092E-14
1.076E+02  3.836E-24  1.095E-14
1.067E+02  3.884E-24  1.099E-14
1.057E+02  3.931E-24  1.102E-14
1.047E+02  3.979E-24  1.105E-14
1.038E+02  4.026E-24  1.108E-14
1.028E+02  4.073E-24  1.111E-14
1.019E+02  4.119E-24  1.113E-14
1.009E+02  4.165E-24  1.115E-14
1.000E+02  4.211E-24  1.117E-14
9.908E+01  4.256E-24  1.119E-14
9.817E+01  4.301E-24  1.120E-14
9.727E+01  4.345E-24  1.121E-14
9.638E+01  4.389E-24  1.122E-14
9.550E+01  4.433E-24  1.123E-14
9.462E+01  4.476E-24  1.123E-14
9.376E+01  4.519E-24  1.124E-14
9.290E+01  4.561E-24  1.124E-14
9.204E+01  4.602E-24  1.124E-14
9.120E+01  4.643E-24  1.123E-14
9.036E+01  4.684E-24  1.123E-14
8.954E+01  4.724E-24  1.122E-14
8.872E+01  4.763E-24  1.121E-14
8.790E+01  4.802E-24  1.120E-14
8.710E+01  4.840E-24  1.118E-14
8.630E+01  4.878E-24  1.117E-14
8.551E+01  4.916E-24  1.115E-14
8.472E+01  4.952E-24  1.113E-14
8.395E+01  4.987E-24  1.111E-14
8.318E+01  5.022E-24  1.108E-14
8.241E+01  5.056E-24  1.105E-14
8.166E+01  5.090E-24  1.103E-14
8.091E+01  5.123E-24  1.100E-14
8.017E+01  5.156E-24  1.096E-14
7.943E+01  5.187E-24  1.093E-14
7.870E+01  5.217E-24  1.089E-14
7.798E+01  5.247E-24  1.085E-14
7.727E+01  5.276E-24  1.081E-14
7.656E+01  5.304E-24  1.077E-14
7.586E+01  5.332E-24  1.073E-14
7.516E+01  5.359E-24  1.068E-14
7.447E+01  5.384E-24  1.064E-14
7.379E+01  5.409E-24  1.059E-14
7.311E+01  5.433E-24  1.054E-14
7.244E+01  5.455E-24  1.048E-14
7.178E+01  5.477E-24  1.043E-14
7.112E+01  5.498E-24  1.037E-14
7.047E+01  5.518E-24  1.032E-14
6.982E+01  5.539E-24  1.026E-14
6.918E+01  5.559E-24  1.020E-14
6.855E+01  5.576E-24  1.014E-14
6.792E+01  5.593E-24  1.008E-14
6.730E+01  5.608E-24  1.001E-14
6.668E+01  5.624E-24  9.947E-15
6.607E+01  5.638E-24  9.881E-15
6.546E+01  5.652E-24  9.815E-15
6.486E+01  5.665E-24  9.746E-15
6.427E+01  5.676E-24  9.676E-15
6.368E+01  5.686E-24  9.605E-15
6.310E+01  5.697E-24  9.535E-15
6.252E+01  5.706E-24  9.463E-15
6.194E+01  5.715E-24  9.391E-15
6.138E+01  5.723E-24  9.318E-15
6.081E+01  5.730E-24  9.244E-15
6.026E+01  5.736E-24  9.169E-15
5.970E+01  5.741E-24  9.092E-15
5.916E+01  5.745E-24  9.016E-15
5.861E+01  5.748E-24  8.937E-15
5.808E+01  5.750E-24  8.858E-15
5.754E+01  5.751E-24  8.779E-15
5.702E+01  5.752E-24  8.699E-15
5.649E+01  5.751E-24  8.618E-15
5.598E+01  5.750E-24  8.538E-15
5.546E+01  5.748E-24  8.457E-15
5.495E+01  5.746E-24  8.376E-15
5.445E+01  5.743E-24  8.295E-15
5.395E+01  5.740E-24  8.214E-15
5.346E+01  5.735E-24  8.132E-15
5.297E+01  5.730E-24  8.050E-15
5.248E+01  5.724E-24  7.968E-15
5.200E+01  5.717E-24  7.886E-15
5.152E+01  5.709E-24  7.803E-15
5.105E+01  5.700E-24  7.719E-15
5.058E+01  5.691E-24  7.636E-15
5.012E+01  5.681E-24  7.552E-15
4.966E+01  5.669E-24  7.468E-15
