Dust emission from Draine & Li (2007): ApJ 657, 810-837
================================================================
        11 = grain model
 4.000E-08 4.000E-01 0.000E+00 = a_01 (cm) , sigma_1 , b_C1/0.92
 2.500E-07 4.000E-01 0.000E+00 = a_02 (cm) , sigma_2 , b_C2/0.92
 3.000E-01 3.000E-01 1.000E+00 = Umin , Umax, beta (dN/dU propto U^{-beta})
 3.000E-01 = <U> 
     mmp83 = radfield
 1.661E-25 = power/H (erg s-1)
 band   nu*P_nu(band) j_nu(band)
 (um)   (erg s-1 H-1)(Jy cm2 sr-1 H-1)
1.270E+00  1.524E-28  5.135E-21 COBE-DIRBE
2.220E+00  2.759E-28  1.624E-20 COBE-DIRBE
3.530E+00  4.812E-28  4.506E-20 COBE-DIRBE
4.880E+00  3.636E-28  4.707E-20 COBE-DIRBE
1.229E+01  4.287E-27  1.398E-18 COBE-DIRBE
2.079E+01  6.735E-27  3.714E-18 COBE-DIRBE
5.599E+01  1.669E-26  2.478E-17 COBE-DIRBE
9.770E+01  6.599E-26  1.710E-16 COBE-DIRBE
1.479E+02  1.208E-25  4.739E-16 COBE-DIRBE
2.479E+02  8.615E-26  5.664E-16 COBE-DIRBE
1.200E+01  4.241E-27  1.350E-18 IRAS
2.500E+01  7.116E-27  4.719E-18 IRAS
6.000E+01  1.932E-26  3.074E-17 IRAS
1.000E+02  6.989E-26  1.854E-16 IRAS
3.550E+00  5.140E-28  4.841E-20 SST-IRAC
4.493E+00  3.418E-28  4.074E-20 SST-IRAC
5.731E+00  7.730E-28  1.175E-19 SST-IRAC
7.872E+00  3.067E-27  6.405E-19 SST-IRAC
2.368E+01  6.826E-27  4.288E-18 SST-MIPS
7.142E+01  2.633E-26  4.989E-17 SST-MIPS
1.559E+02  1.220E-25  5.044E-16 SST-MIPS
1.600E+01  4.183E-27  1.775E-18 SST-IRSPU
2.200E+01  7.082E-27  4.133E-18 SST-IRSPU











lambda    nu*dP/dnu     j_nu
 (um)   (erg s-1 H-1)(Jy cm2 sr-1 H-1)
1.000E+04  9.269E-32  2.459E-20
9.908E+03  9.604E-32  2.524E-20
9.817E+03  9.950E-32  2.591E-20
9.727E+03  1.031E-31  2.660E-20
9.638E+03  1.068E-31  2.731E-20
9.550E+03  1.107E-31  2.803E-20
9.462E+03  1.146E-31  2.878E-20
9.376E+03  1.188E-31  2.954E-20
9.290E+03  1.231E-31  3.033E-20
9.204E+03  1.275E-31  3.113E-20
9.120E+03  1.321E-31  3.196E-20
9.036E+03  1.369E-31  3.281E-20
8.954E+03  1.418E-31  3.367E-20
8.872E+03  1.469E-31  3.456E-20
8.790E+03  1.521E-31  3.547E-20
8.710E+03  1.576E-31  3.640E-20
8.630E+03  1.632E-31  3.736E-20
8.551E+03  1.691E-31  3.835E-20
8.472E+03  1.752E-31  3.936E-20
8.395E+03  1.814E-31  4.040E-20
8.318E+03  1.880E-31  4.147E-20
8.241E+03  1.947E-31  4.257E-20
8.166E+03  2.017E-31  4.370E-20
8.091E+03  2.090E-31  4.486E-20
8.017E+03  2.165E-31  4.605E-20
7.943E+03  2.243E-31  4.727E-20
7.870E+03  2.324E-31  4.853E-20
7.798E+03  2.408E-31  4.982E-20
7.727E+03  2.495E-31  5.114E-20
7.656E+03  2.585E-31  5.250E-20
7.586E+03  2.679E-31  5.390E-20
7.516E+03  2.776E-31  5.534E-20
7.447E+03  2.876E-31  5.682E-20
7.379E+03  2.980E-31  5.833E-20
7.311E+03  3.088E-31  5.989E-20
7.244E+03  3.200E-31  6.149E-20
7.178E+03  3.316E-31  6.314E-20
7.112E+03  3.436E-31  6.483E-20
7.047E+03  3.561E-31  6.657E-20
6.982E+03  3.690E-31  6.835E-20
6.918E+03  3.824E-31  7.018E-20
6.855E+03  3.963E-31  7.206E-20
6.792E+03  4.107E-31  7.399E-20
6.730E+03  4.256E-31  7.597E-20
6.668E+03  4.410E-31  7.801E-20
6.607E+03  4.571E-31  8.010E-20
6.546E+03  4.737E-31  8.226E-20
6.486E+03  4.909E-31  8.447E-20
6.427E+03  5.088E-31  8.674E-20
6.368E+03  5.273E-31  8.908E-20
6.310E+03  5.466E-31  9.148E-20
6.252E+03  5.665E-31  9.395E-20
6.194E+03  5.872E-31  9.648E-20
6.138E+03  6.086E-31  9.909E-20
6.081E+03  6.309E-31  1.018E-19
6.026E+03  6.539E-31  1.045E-19
5.970E+03  6.778E-31  1.073E-19
5.916E+03  7.026E-31  1.103E-19
5.861E+03  7.284E-31  1.132E-19
5.808E+03  7.551E-31  1.163E-19
5.754E+03  7.827E-31  1.195E-19
5.702E+03  8.114E-31  1.227E-19
5.649E+03  8.412E-31  1.261E-19
5.598E+03  8.721E-31  1.295E-19
5.546E+03  9.041E-31  1.330E-19
5.495E+03  9.373E-31  1.366E-19
5.445E+03  9.718E-31  1.404E-19
5.395E+03  1.007E-30  1.442E-19
5.346E+03  1.045E-30  1.481E-19
5.297E+03  1.083E-30  1.522E-19
5.248E+03  1.123E-30  1.563E-19
5.200E+03  1.164E-30  1.606E-19
5.152E+03  1.207E-30  1.650E-19
5.105E+03  1.252E-30  1.695E-19
5.058E+03  1.298E-30  1.741E-19
5.012E+03  1.346E-30  1.789E-19
4.966E+03  1.395E-30  1.838E-19
4.920E+03  1.447E-30  1.888E-19
4.875E+03  1.500E-30  1.940E-19
4.831E+03  1.556E-30  1.993E-19
4.786E+03  1.613E-30  2.048E-19
4.742E+03  1.673E-30  2.104E-19
4.699E+03  1.735E-30  2.162E-19
4.656E+03  1.799E-30  2.222E-19
4.613E+03  1.866E-30  2.283E-19
4.571E+03  1.935E-30  2.346E-19
4.529E+03  2.007E-30  2.411E-19
4.487E+03  2.081E-30  2.477E-19
4.446E+03  2.158E-30  2.546E-19
4.406E+03  2.238E-30  2.616E-19
4.365E+03  2.322E-30  2.688E-19
4.325E+03  2.408E-30  2.763E-19
4.285E+03  2.498E-30  2.839E-19
4.246E+03  2.590E-30  2.918E-19
4.207E+03  2.687E-30  2.999E-19
4.169E+03  2.787E-30  3.082E-19
4.130E+03  2.891E-30  3.167E-19
4.093E+03  2.999E-30  3.255E-19
4.055E+03  3.111E-30  3.346E-19
4.018E+03  3.227E-30  3.439E-19
3.981E+03  3.347E-30  3.534E-19
3.945E+03  3.472E-30  3.633E-19
3.908E+03  3.601E-30  3.734E-19
3.873E+03  3.736E-30  3.837E-19
3.837E+03  3.875E-30  3.944E-19
3.802E+03  4.020E-30  4.054E-19
3.767E+03  4.170E-30  4.167E-19
3.733E+03  4.326E-30  4.283E-19
3.698E+03  4.488E-30  4.403E-19
3.664E+03  4.656E-30  4.526E-19
3.631E+03  4.831E-30  4.653E-19
3.597E+03  5.012E-30  4.783E-19
3.565E+03  5.200E-30  4.917E-19
3.532E+03  5.396E-30  5.055E-19
3.499E+03  5.598E-30  5.197E-19
3.467E+03  5.809E-30  5.343E-19
3.436E+03  6.027E-30  5.493E-19
3.404E+03  6.254E-30  5.647E-19
3.373E+03  6.489E-30  5.806E-19
3.342E+03  6.734E-30  5.969E-19
3.311E+03  6.988E-30  6.138E-19
3.281E+03  7.251E-30  6.311E-19
3.251E+03  7.525E-30  6.489E-19
3.221E+03  7.809E-30  6.672E-19
3.192E+03  8.104E-30  6.861E-19
3.162E+03  8.410E-30  7.054E-19
3.133E+03  8.728E-30  7.254E-19
3.105E+03  9.058E-30  7.459E-19
3.076E+03  9.401E-30  7.671E-19
3.048E+03  9.756E-30  7.888E-19
3.020E+03  1.013E-29  8.112E-19
2.992E+03  1.051E-29  8.341E-19
2.965E+03  1.091E-29  8.577E-19
2.938E+03  1.132E-29  8.819E-19
2.911E+03  1.175E-29  9.069E-19
2.884E+03  1.219E-29  9.325E-19
2.858E+03  1.265E-29  9.589E-19
2.831E+03  1.313E-29  9.861E-19
2.805E+03  1.363E-29  1.014E-18
2.780E+03  1.414E-29  1.043E-18
2.754E+03  1.468E-29  1.072E-18
2.729E+03  1.524E-29  1.103E-18
2.704E+03  1.581E-29  1.134E-18
2.679E+03  1.641E-29  1.167E-18
2.655E+03  1.704E-29  1.200E-18
2.630E+03  1.769E-29  1.234E-18
2.606E+03  1.836E-29  1.269E-18
2.582E+03  1.906E-29  1.305E-18
2.559E+03  1.978E-29  1.343E-18
2.535E+03  2.053E-29  1.381E-18
2.512E+03  2.132E-29  1.420E-18
2.489E+03  2.213E-29  1.461E-18
2.466E+03  2.297E-29  1.503E-18
2.443E+03  2.385E-29  1.546E-18
2.421E+03  2.476E-29  1.590E-18
2.399E+03  2.570E-29  1.635E-18
2.377E+03  2.668E-29  1.682E-18
2.355E+03  2.770E-29  1.730E-18
2.333E+03  2.876E-29  1.780E-18
2.312E+03  2.986E-29  1.831E-18
2.291E+03  3.100E-29  1.884E-18
2.270E+03  3.218E-29  1.938E-18
2.249E+03  3.341E-29  1.993E-18
2.228E+03  3.469E-29  2.050E-18
2.208E+03  3.602E-29  2.109E-18
2.188E+03  3.739E-29  2.170E-18
2.168E+03  3.882E-29  2.232E-18
2.148E+03  4.031E-29  2.296E-18
2.128E+03  4.185E-29  2.362E-18
2.109E+03  4.345E-29  2.430E-18
2.089E+03  4.512E-29  2.500E-18
2.070E+03  4.684E-29  2.572E-18
2.051E+03  4.863E-29  2.646E-18
2.032E+03  5.050E-29  2.722E-18
2.014E+03  5.243E-29  2.801E-18
1.995E+03  5.444E-29  2.881E-18
1.977E+03  5.652E-29  2.964E-18
1.959E+03  5.868E-29  3.049E-18
1.941E+03  6.093E-29  3.137E-18
1.923E+03  6.326E-29  3.227E-18
1.905E+03  6.568E-29  3.320E-18
1.888E+03  6.819E-29  3.415E-18
1.871E+03  7.080E-29  3.513E-18
1.854E+03  7.351E-29  3.614E-18
1.837E+03  7.633E-29  3.718E-18
1.820E+03  7.925E-29  3.825E-18
1.803E+03  8.228E-29  3.935E-18
1.786E+03  8.543E-29  4.048E-18
1.770E+03  8.870E-29  4.165E-18
1.754E+03  9.209E-29  4.285E-18
1.738E+03  9.562E-29  4.408E-18
1.722E+03  9.928E-29  4.534E-18
1.706E+03  1.031E-28  4.665E-18
1.690E+03  1.070E-28  4.799E-18
1.675E+03  1.111E-28  4.936E-18
1.660E+03  1.154E-28  5.078E-18
1.644E+03  1.198E-28  5.224E-18
1.629E+03  1.243E-28  5.374E-18
1.614E+03  1.291E-28  5.528E-18
1.600E+03  1.340E-28  5.686E-18
1.585E+03  1.391E-28  5.849E-18
1.570E+03  1.444E-28  6.017E-18
1.556E+03  1.500E-28  6.189E-18
1.542E+03  1.557E-28  6.366E-18
1.528E+03  1.616E-28  6.548E-18
1.514E+03  1.678E-28  6.735E-18
1.500E+03  1.742E-28  6.928E-18
1.486E+03  1.808E-28  7.126E-18
1.472E+03  1.877E-28  7.330E-18
1.459E+03  1.948E-28  7.539E-18
1.445E+03  2.022E-28  7.754E-18
1.432E+03  2.099E-28  7.975E-18
1.419E+03  2.179E-28  8.203E-18
1.406E+03  2.262E-28  8.437E-18
1.393E+03  2.348E-28  8.677E-18
1.380E+03  2.437E-28  8.924E-18
1.368E+03  2.530E-28  9.178E-18
1.355E+03  2.626E-28  9.439E-18
1.343E+03  2.725E-28  9.707E-18
1.330E+03  2.829E-28  9.982E-18
1.318E+03  2.936E-28  1.027E-17
1.306E+03  3.047E-28  1.056E-17
1.294E+03  3.162E-28  1.086E-17
1.282E+03  3.282E-28  1.116E-17
1.271E+03  3.406E-28  1.148E-17
1.259E+03  3.534E-28  1.180E-17
1.247E+03  3.667E-28  1.213E-17
1.236E+03  3.805E-28  1.248E-17
1.225E+03  3.949E-28  1.283E-17
1.213E+03  4.097E-28  1.319E-17
1.202E+03  4.251E-28  1.356E-17
1.191E+03  4.411E-28  1.394E-17
1.180E+03  4.576E-28  1.433E-17
1.169E+03  4.748E-28  1.473E-17
1.159E+03  4.926E-28  1.514E-17
1.148E+03  5.110E-28  1.556E-17
1.138E+03  5.301E-28  1.600E-17
1.127E+03  5.499E-28  1.644E-17
1.117E+03  5.704E-28  1.690E-17
1.107E+03  5.916E-28  1.737E-17
1.096E+03  6.136E-28  1.785E-17
1.086E+03  6.364E-28  1.834E-17
1.076E+03  6.601E-28  1.885E-17
1.067E+03  6.845E-28  1.937E-17
1.057E+03  7.099E-28  1.990E-17
1.047E+03  7.362E-28  2.045E-17
1.038E+03  7.633E-28  2.101E-17
1.028E+03  7.915E-28  2.158E-17
1.019E+03  8.206E-28  2.217E-17
1.009E+03  8.508E-28  2.278E-17
1.000E+03  8.821E-28  2.340E-17
9.908E+02  9.145E-28  2.404E-17
9.817E+02  9.481E-28  2.469E-17
9.727E+02  9.828E-28  2.536E-17
9.638E+02  1.019E-27  2.605E-17
9.550E+02  1.056E-27  2.675E-17
9.462E+02  1.095E-27  2.748E-17
9.376E+02  1.135E-27  2.822E-17
9.290E+02  1.176E-27  2.897E-17
9.204E+02  1.219E-27  2.975E-17
9.120E+02  1.263E-27  3.055E-17
9.036E+02  1.308E-27  3.136E-17
8.954E+02  1.356E-27  3.220E-17
8.872E+02  1.405E-27  3.305E-17
8.790E+02  1.455E-27  3.393E-17
8.710E+02  1.507E-27  3.483E-17
8.630E+02  1.561E-27  3.574E-17
8.551E+02  1.617E-27  3.668E-17
8.472E+02  1.675E-27  3.764E-17
8.395E+02  1.735E-27  3.863E-17
8.318E+02  1.796E-27  3.963E-17
8.241E+02  1.860E-27  4.066E-17
8.166E+02  1.926E-27  4.172E-17
8.091E+02  1.994E-27  4.279E-17
8.017E+02  2.064E-27  4.389E-17
7.943E+02  2.137E-27  4.502E-17
7.870E+02  2.212E-27  4.617E-17
7.798E+02  2.289E-27  4.735E-17
7.727E+02  2.369E-27  4.855E-17
7.656E+02  2.451E-27  4.978E-17
7.586E+02  2.537E-27  5.104E-17
7.516E+02  2.625E-27  5.233E-17
7.447E+02  2.716E-27  5.365E-17
7.379E+02  2.810E-27  5.500E-17
7.311E+02  2.907E-27  5.639E-17
7.244E+02  3.008E-27  5.780E-17
7.178E+02  3.112E-27  5.925E-17
7.112E+02  3.219E-27  6.073E-17
7.047E+02  3.330E-27  6.224E-17
6.982E+02  3.444E-27  6.379E-17
6.918E+02  3.562E-27  6.537E-17
6.855E+02  3.684E-27  6.698E-17
6.792E+02  3.810E-27  6.864E-17
6.730E+02  3.939E-27  7.032E-17
6.668E+02  4.073E-27  7.204E-17
6.607E+02  4.211E-27  7.379E-17
6.546E+02  4.353E-27  7.560E-17
6.486E+02  4.501E-27  7.745E-17
6.427E+02  4.654E-27  7.934E-17
6.368E+02  4.811E-27  8.127E-17
6.310E+02  4.974E-27  8.325E-17
6.252E+02  5.142E-27  8.527E-17
6.194E+02  5.315E-27  8.733E-17
6.138E+02  5.493E-27  8.943E-17
6.081E+02  5.677E-27  9.158E-17
6.026E+02  5.867E-27  9.378E-17
5.970E+02  6.064E-27  9.603E-17
5.916E+02  6.266E-27  9.832E-17
5.861E+02  6.475E-27  1.007E-16
5.808E+02  6.690E-27  1.031E-16
5.754E+02  6.912E-27  1.055E-16
5.702E+02  7.141E-27  1.080E-16
5.649E+02  7.376E-27  1.105E-16
5.598E+02  7.620E-27  1.131E-16
5.546E+02  7.871E-27  1.158E-16
5.495E+02  8.129E-27  1.185E-16
5.445E+02  8.396E-27  1.213E-16
5.395E+02  8.669E-27  1.241E-16
5.346E+02  8.952E-27  1.269E-16
5.297E+02  9.244E-27  1.299E-16
5.248E+02  9.544E-27  1.329E-16
5.200E+02  9.854E-27  1.359E-16
5.152E+02  1.017E-26  1.390E-16
5.105E+02  1.050E-26  1.422E-16
5.058E+02  1.084E-26  1.454E-16
5.012E+02  1.119E-26  1.487E-16
4.966E+02  1.154E-26  1.521E-16
4.920E+02  1.191E-26  1.555E-16
4.875E+02  1.229E-26  1.590E-16
4.831E+02  1.268E-26  1.625E-16
4.786E+02  1.308E-26  1.661E-16
4.742E+02  1.350E-26  1.698E-16
4.699E+02  1.392E-26  1.735E-16
4.656E+02  1.435E-26  1.773E-16
4.613E+02  1.480E-26  1.811E-16
4.571E+02  1.526E-26  1.851E-16
4.529E+02  1.574E-26  1.891E-16
4.487E+02  1.623E-26  1.931E-16
4.446E+02  1.673E-26  1.973E-16
4.406E+02  1.724E-26  2.015E-16
4.365E+02  1.777E-26  2.057E-16
4.325E+02  1.831E-26  2.101E-16
4.285E+02  1.887E-26  2.145E-16
4.246E+02  1.944E-26  2.189E-16
4.207E+02  2.002E-26  2.235E-16
4.169E+02  2.063E-26  2.281E-16
4.130E+02  2.124E-26  2.327E-16
4.093E+02  2.188E-26  2.375E-16
4.055E+02  2.253E-26  2.423E-16
4.018E+02  2.319E-26  2.472E-16
3.981E+02  2.388E-26  2.521E-16
3.945E+02  2.458E-26  2.572E-16
3.908E+02  2.530E-26  2.623E-16
3.873E+02  2.603E-26  2.674E-16
3.837E+02  2.679E-26  2.727E-16
3.802E+02  2.756E-26  2.780E-16
3.767E+02  2.835E-26  2.833E-16
3.733E+02  2.916E-26  2.887E-16
3.698E+02  2.999E-26  2.942E-16
3.664E+02  3.084E-26  2.998E-16
3.631E+02  3.171E-26  3.054E-16
3.597E+02  3.259E-26  3.110E-16
3.565E+02  3.350E-26  3.168E-16
3.532E+02  3.443E-26  3.225E-16
3.499E+02  3.538E-26  3.284E-16
3.467E+02  3.635E-26  3.343E-16
3.436E+02  3.734E-26  3.402E-16
3.404E+02  3.835E-26  3.463E-16
3.373E+02  3.938E-26  3.523E-16
3.342E+02  4.043E-26  3.584E-16
3.311E+02  4.150E-26  3.645E-16
3.281E+02  4.260E-26  3.707E-16
3.251E+02  4.371E-26  3.769E-16
3.221E+02  4.485E-26  3.832E-16
3.192E+02  4.601E-26  3.895E-16
3.162E+02  4.719E-26  3.958E-16
3.133E+02  4.839E-26  4.022E-16
3.105E+02  4.961E-26  4.085E-16
3.076E+02  5.085E-26  4.149E-16
3.048E+02  5.212E-26  4.214E-16
3.020E+02  5.341E-26  4.278E-16
2.992E+02  5.471E-26  4.343E-16
2.965E+02  5.604E-26  4.407E-16
2.938E+02  5.739E-26  4.472E-16
2.911E+02  5.876E-26  4.537E-16
2.884E+02  6.014E-26  4.601E-16
2.858E+02  6.155E-26  4.666E-16
2.831E+02  6.298E-26  4.730E-16
2.805E+02  6.443E-26  4.795E-16
2.780E+02  6.589E-26  4.859E-16
2.754E+02  6.738E-26  4.923E-16
2.729E+02  6.889E-26  4.987E-16
2.704E+02  7.042E-26  5.051E-16
2.679E+02  7.197E-26  5.115E-16
2.655E+02  7.354E-26  5.179E-16
2.630E+02  7.513E-26  5.242E-16
2.606E+02  7.673E-26  5.305E-16
2.582E+02  7.835E-26  5.367E-16
2.559E+02  7.997E-26  5.427E-16
2.535E+02  8.159E-26  5.486E-16
2.512E+02  8.320E-26  5.544E-16
2.489E+02  8.477E-26  5.596E-16
2.466E+02  8.628E-26  5.644E-16
2.443E+02  8.778E-26  5.689E-16
2.421E+02  8.926E-26  5.732E-16
2.399E+02  9.071E-26  5.772E-16
2.377E+02  9.210E-26  5.807E-16
2.355E+02  9.349E-26  5.840E-16
2.333E+02  9.487E-26  5.872E-16
2.312E+02  9.624E-26  5.902E-16
2.291E+02  9.759E-26  5.930E-16
2.270E+02  9.894E-26  5.957E-16
2.249E+02  1.003E-25  5.982E-16
2.228E+02  1.016E-25  6.005E-16
2.208E+02  1.029E-25  6.026E-16
2.188E+02  1.042E-25  6.046E-16
2.168E+02  1.054E-25  6.063E-16
2.148E+02  1.067E-25  6.079E-16
2.128E+02  1.079E-25  6.092E-16
2.109E+02  1.091E-25  6.103E-16
2.089E+02  1.103E-25  6.113E-16
2.070E+02  1.114E-25  6.120E-16
2.051E+02  1.126E-25  6.125E-16
2.032E+02  1.137E-25  6.127E-16
2.014E+02  1.147E-25  6.128E-16
1.995E+02  1.158E-25  6.127E-16
1.977E+02  1.168E-25  6.123E-16
1.959E+02  1.177E-25  6.117E-16
1.941E+02  1.187E-25  6.109E-16
1.923E+02  1.196E-25  6.099E-16
1.905E+02  1.204E-25  6.086E-16
1.888E+02  1.212E-25  6.072E-16
1.871E+02  1.220E-25  6.055E-16
1.854E+02  1.228E-25  6.036E-16
1.837E+02  1.235E-25  6.015E-16
1.820E+02  1.241E-25  5.992E-16
1.803E+02  1.248E-25  5.967E-16
1.786E+02  1.253E-25  5.940E-16
1.770E+02  1.259E-25  5.911E-16
1.754E+02  1.264E-25  5.880E-16
1.738E+02  1.268E-25  5.847E-16
1.722E+02  1.273E-25  5.812E-16
1.706E+02  1.276E-25  5.775E-16
1.690E+02  1.279E-25  5.737E-16
1.675E+02  1.282E-25  5.697E-16
1.660E+02  1.285E-25  5.656E-16
1.644E+02  1.287E-25  5.613E-16
1.629E+02  1.288E-25  5.569E-16
1.614E+02  1.290E-25  5.523E-16
1.600E+02  1.291E-25  5.476E-16
1.585E+02  1.291E-25  5.428E-16
1.570E+02  1.291E-25  5.379E-16
1.556E+02  1.291E-25  5.329E-16
1.542E+02  1.291E-25  5.278E-16
1.528E+02  1.290E-25  5.227E-16
1.514E+02  1.289E-25  5.175E-16
1.500E+02  1.288E-25  5.122E-16
1.486E+02  1.286E-25  5.068E-16
1.472E+02  1.284E-25  5.014E-16
1.459E+02  1.281E-25  4.958E-16
1.445E+02  1.278E-25  4.900E-16
1.432E+02  1.274E-25  4.840E-16
1.419E+02  1.269E-25  4.775E-16
1.406E+02  1.262E-25  4.706E-16
1.393E+02  1.253E-25  4.630E-16
1.380E+02  1.242E-25  4.549E-16
1.368E+02  1.230E-25  4.464E-16
1.355E+02  1.217E-25  4.374E-16
1.343E+02  1.202E-25  4.282E-16
1.330E+02  1.187E-25  4.189E-16
1.318E+02  1.171E-25  4.096E-16
1.306E+02  1.155E-25  4.003E-16
1.294E+02  1.140E-25  3.912E-16
1.282E+02  1.124E-25  3.822E-16
1.271E+02  1.108E-25  3.734E-16
1.259E+02  1.092E-25  3.647E-16
1.247E+02  1.076E-25  3.561E-16
1.236E+02  1.060E-25  3.476E-16
1.225E+02  1.045E-25  3.393E-16
1.213E+02  1.029E-25  3.311E-16
1.202E+02  1.013E-25  3.230E-16
1.191E+02  9.971E-26  3.151E-16
1.180E+02  9.812E-26  3.072E-16
1.169E+02  9.652E-26  2.994E-16
1.159E+02  9.491E-26  2.917E-16
1.148E+02  9.331E-26  2.842E-16
1.138E+02  9.170E-26  2.767E-16
1.127E+02  9.009E-26  2.694E-16
1.117E+02  8.849E-26  2.621E-16
1.107E+02  8.689E-26  2.550E-16
1.096E+02  8.529E-26  2.481E-16
1.086E+02  8.369E-26  2.412E-16
1.076E+02  8.209E-26  2.344E-16
1.067E+02  8.050E-26  2.278E-16
1.057E+02  7.892E-26  2.212E-16
1.047E+02  7.734E-26  2.148E-16
1.038E+02  7.577E-26  2.085E-16
1.028E+02  7.420E-26  2.023E-16
1.019E+02  7.264E-26  1.963E-16
1.009E+02  7.108E-26  1.903E-16
1.000E+02  6.954E-26  1.845E-16
9.908E+01  6.801E-26  1.788E-16
9.817E+01  6.649E-26  1.732E-16
9.727E+01  6.498E-26  1.677E-16
9.638E+01  6.349E-26  1.623E-16
9.550E+01  6.202E-26  1.571E-16
9.462E+01  6.056E-26  1.520E-16
9.376E+01  5.912E-26  1.470E-16
9.290E+01  5.770E-26  1.422E-16
9.204E+01  5.629E-26  1.374E-16
9.120E+01  5.491E-26  1.328E-16
9.036E+01  5.355E-26  1.284E-16
8.954E+01  5.221E-26  1.240E-16
8.872E+01  5.089E-26  1.198E-16
8.790E+01  4.960E-26  1.157E-16
8.710E+01  4.834E-26  1.117E-16
8.630E+01  4.710E-26  1.078E-16
8.551E+01  4.588E-26  1.041E-16
8.472E+01  4.468E-26  1.004E-16
8.395E+01  4.351E-26  9.689E-17
8.318E+01  4.237E-26  9.348E-17
8.241E+01  4.125E-26  9.018E-17
8.166E+01  4.016E-26  8.700E-17
8.091E+01  3.910E-26  8.392E-17
8.017E+01  3.807E-26  8.095E-17
7.943E+01  3.705E-26  7.807E-17
7.870E+01  3.607E-26  7.530E-17
7.798E+01  3.511E-26  7.263E-17
7.727E+01  3.418E-26  7.005E-17
7.656E+01  3.327E-26  6.757E-17
7.586E+01  3.239E-26  6.518E-17
7.516E+01  3.154E-26  6.289E-17
7.447E+01  3.071E-26  6.067E-17
7.379E+01  2.991E-26  5.854E-17
7.311E+01  2.913E-26  5.649E-17
7.244E+01  2.837E-26  5.452E-17
7.178E+01  2.764E-26  5.262E-17
7.112E+01  2.693E-26  5.081E-17
7.047E+01  2.625E-26  4.907E-17
6.982E+01  2.559E-26  4.740E-17
6.918E+01  2.496E-26  4.581E-17
6.855E+01  2.435E-26  4.427E-17
6.792E+01  2.375E-26  4.279E-17
6.730E+01  2.318E-26  4.138E-17
6.668E+01  2.263E-26  4.003E-17
6.607E+01  2.210E-26  3.873E-17
6.546E+01  2.159E-26  3.750E-17
6.486E+01  2.110E-26  3.631E-17
6.427E+01  2.063E-26  3.517E-17
6.368E+01  2.018E-26  3.408E-17
6.310E+01  1.974E-26  3.304E-17
6.252E+01  1.932E-26  3.205E-17
6.194E+01  1.892E-26  3.109E-17
6.138E+01  1.854E-26  3.018E-17
6.081E+01  1.817E-26  2.931E-17
6.026E+01  1.782E-26  2.848E-17
5.970E+01  1.748E-26  2.768E-17
5.916E+01  1.715E-26  2.691E-17
5.861E+01  1.683E-26  2.617E-17
5.808E+01  1.653E-26  2.547E-17
5.754E+01  1.624E-26  2.479E-17
5.702E+01  1.597E-26  2.415E-17
5.649E+01  1.570E-26  2.353E-17
5.598E+01  1.544E-26  2.293E-17
5.546E+01  1.520E-26  2.236E-17
5.495E+01  1.497E-26  2.182E-17
5.445E+01  1.475E-26  2.130E-17
5.395E+01  1.453E-26  2.080E-17
5.346E+01  1.433E-26  2.032E-17
5.297E+01  1.413E-26  1.985E-17
5.248E+01  1.394E-26  1.941E-17
5.200E+01  1.376E-26  1.898E-17
5.152E+01  1.358E-26  1.857E-17
5.105E+01  1.342E-26  1.817E-17
5.058E+01  1.325E-26  1.778E-17
5.012E+01  1.310E-26  1.741E-17
4.966E+01  1.295E-26  1.705E-17
