Dust emission from Draine & Li (2007): ApJ 657, 810-837
================================================================
         3 = grain model
 4.000E-08 4.000E-01 1.500E-05 = a_01 (cm) , sigma_1 , b_C1/0.92
 2.500E-07 4.000E-01 5.000E-06 = a_02 (cm) , sigma_2 , b_C2/0.92
 3.000E-01 1.000E+03 2.000E+00 = Umin , Umax, beta (dN/dU propto U^{-beta})
 2.434E+00 = <U> 
     mmp83 = radfield
 1.083E-23 = power/H (erg s-1)
 band   nu*P_nu(band) j_nu(band)
 (um)   (erg s-1 H-1)(Jy cm2 sr-1 H-1)
1.270E+00  1.596E-26  5.378E-19 COBE-DIRBE
2.220E+00  2.010E-26  1.184E-18 COBE-DIRBE
3.530E+00  1.338E-25  1.253E-17 COBE-DIRBE
4.880E+00  6.188E-26  8.010E-18 COBE-DIRBE
1.229E+01  6.416E-25  2.092E-16 COBE-DIRBE
2.079E+01  7.454E-25  4.110E-16 COBE-DIRBE
5.599E+01  5.544E-24  8.233E-15 COBE-DIRBE
9.770E+01  5.299E-24  1.373E-14 COBE-DIRBE
1.479E+02  3.710E-24  1.456E-14 COBE-DIRBE
2.479E+02  1.271E-24  8.356E-15 COBE-DIRBE
1.200E+01  6.505E-25  2.071E-16 IRAS
2.500E+01  9.346E-25  6.198E-16 IRAS
6.000E+01  5.573E-24  8.869E-15 IRAS
1.000E+02  5.233E-24  1.388E-14 IRAS
3.550E+00  1.557E-25  1.466E-17 SST-IRAC
4.493E+00  4.311E-26  5.138E-18 SST-IRAC
5.731E+00  3.728E-25  5.667E-17 SST-IRAC
7.872E+00  8.928E-25  1.864E-16 SST-IRAC
2.368E+01  7.890E-25  4.956E-16 SST-MIPS
7.142E+01  5.303E-24  1.005E-14 SST-MIPS
1.559E+02  3.265E-24  1.350E-14 SST-MIPS
1.600E+01  6.127E-25  2.601E-16 SST-IRSPU
2.200E+01  7.805E-25  4.555E-16 SST-IRSPU











lambda    nu*dP/dnu     j_nu
 (um)   (erg s-1 H-1)(Jy cm2 sr-1 H-1)
1.000E+04  5.304E-31  1.407E-19
9.908E+03  5.498E-31  1.445E-19
9.817E+03  5.699E-31  1.484E-19
9.727E+03  5.907E-31  1.524E-19
9.638E+03  6.123E-31  1.566E-19
9.550E+03  6.347E-31  1.608E-19
9.462E+03  6.579E-31  1.651E-19
9.376E+03  6.820E-31  1.696E-19
9.290E+03  7.069E-31  1.742E-19
9.204E+03  7.328E-31  1.789E-19
9.120E+03  7.596E-31  1.837E-19
9.036E+03  7.873E-31  1.887E-19
8.954E+03  8.160E-31  1.938E-19
8.872E+03  8.457E-31  1.990E-19
8.790E+03  8.765E-31  2.044E-19
8.710E+03  9.084E-31  2.099E-19
8.630E+03  9.415E-31  2.155E-19
8.551E+03  9.758E-31  2.213E-19
8.472E+03  1.011E-30  2.273E-19
8.395E+03  1.048E-30  2.334E-19
8.318E+03  1.087E-30  2.397E-19
8.241E+03  1.126E-30  2.462E-19
8.166E+03  1.167E-30  2.529E-19
8.091E+03  1.210E-30  2.597E-19
8.017E+03  1.254E-30  2.668E-19
7.943E+03  1.300E-30  2.740E-19
7.870E+03  1.348E-30  2.814E-19
7.798E+03  1.397E-30  2.891E-19
7.727E+03  1.449E-30  2.969E-19
7.656E+03  1.502E-30  3.050E-19
7.586E+03  1.557E-30  3.133E-19
7.516E+03  1.614E-30  3.218E-19
7.447E+03  1.674E-30  3.306E-19
7.379E+03  1.735E-30  3.396E-19
7.311E+03  1.799E-30  3.489E-19
7.244E+03  1.865E-30  3.584E-19
7.178E+03  1.934E-30  3.682E-19
7.112E+03  2.005E-30  3.783E-19
7.047E+03  2.079E-30  3.887E-19
6.982E+03  2.156E-30  3.993E-19
6.918E+03  2.236E-30  4.102E-19
6.855E+03  2.318E-30  4.215E-19
6.792E+03  2.403E-30  4.330E-19
6.730E+03  2.492E-30  4.449E-19
6.668E+03  2.584E-30  4.571E-19
6.607E+03  2.680E-30  4.697E-19
6.546E+03  2.779E-30  4.826E-19
6.486E+03  2.882E-30  4.958E-19
6.427E+03  2.989E-30  5.095E-19
6.368E+03  3.099E-30  5.235E-19
6.310E+03  3.214E-30  5.380E-19
6.252E+03  3.334E-30  5.528E-19
6.194E+03  3.457E-30  5.681E-19
6.138E+03  3.586E-30  5.838E-19
6.081E+03  3.719E-30  5.999E-19
6.026E+03  3.857E-30  6.166E-19
5.970E+03  4.001E-30  6.336E-19
5.916E+03  4.150E-30  6.512E-19
5.861E+03  4.305E-30  6.693E-19
5.808E+03  4.465E-30  6.879E-19
5.754E+03  4.632E-30  7.070E-19
5.702E+03  4.805E-30  7.266E-19
5.649E+03  4.984E-30  7.469E-19
5.598E+03  5.170E-30  7.677E-19
5.546E+03  5.363E-30  7.891E-19
5.495E+03  5.564E-30  8.111E-19
5.445E+03  5.772E-30  8.337E-19
5.395E+03  5.988E-30  8.570E-19
5.346E+03  6.213E-30  8.809E-19
5.297E+03  6.446E-30  9.056E-19
5.248E+03  6.687E-30  9.309E-19
5.200E+03  6.938E-30  9.570E-19
5.152E+03  7.199E-30  9.838E-19
5.105E+03  7.469E-30  1.011E-18
5.058E+03  7.750E-30  1.040E-18
5.012E+03  8.041E-30  1.069E-18
4.966E+03  8.343E-30  1.099E-18
4.920E+03  8.657E-30  1.130E-18
4.875E+03  8.983E-30  1.162E-18
4.831E+03  9.321E-30  1.194E-18
4.786E+03  9.672E-30  1.228E-18
4.742E+03  1.004E-29  1.263E-18
4.699E+03  1.042E-29  1.298E-18
4.656E+03  1.081E-29  1.335E-18
4.613E+03  1.122E-29  1.373E-18
4.571E+03  1.164E-29  1.411E-18
4.529E+03  1.208E-29  1.451E-18
4.487E+03  1.254E-29  1.492E-18
4.446E+03  1.301E-29  1.535E-18
4.406E+03  1.351E-29  1.578E-18
4.365E+03  1.402E-29  1.623E-18
4.325E+03  1.455E-29  1.669E-18
4.285E+03  1.510E-29  1.717E-18
4.246E+03  1.567E-29  1.765E-18
4.207E+03  1.627E-29  1.816E-18
4.169E+03  1.689E-29  1.867E-18
4.130E+03  1.753E-29  1.921E-18
4.093E+03  1.820E-29  1.976E-18
4.055E+03  1.889E-29  2.032E-18
4.018E+03  1.961E-29  2.090E-18
3.981E+03  2.036E-29  2.150E-18
3.945E+03  2.113E-29  2.211E-18
3.908E+03  2.194E-29  2.274E-18
3.873E+03  2.277E-29  2.339E-18
3.837E+03  2.364E-29  2.406E-18
3.802E+03  2.454E-29  2.475E-18
3.767E+03  2.548E-29  2.546E-18
3.733E+03  2.645E-29  2.619E-18
3.698E+03  2.747E-29  2.694E-18
3.664E+03  2.852E-29  2.772E-18
3.631E+03  2.961E-29  2.852E-18
3.597E+03  3.074E-29  2.934E-18
3.565E+03  3.192E-29  3.018E-18
3.532E+03  3.315E-29  3.105E-18
3.499E+03  3.442E-29  3.195E-18
3.467E+03  3.574E-29  3.287E-18
3.436E+03  3.712E-29  3.382E-18
3.404E+03  3.854E-29  3.480E-18
3.373E+03  4.003E-29  3.581E-18
3.342E+03  4.157E-29  3.685E-18
3.311E+03  4.317E-29  3.792E-18
3.281E+03  4.484E-29  3.902E-18
3.251E+03  4.656E-29  4.015E-18
3.221E+03  4.836E-29  4.132E-18
3.192E+03  5.023E-29  4.252E-18
3.162E+03  5.217E-29  4.376E-18
3.133E+03  5.419E-29  4.504E-18
3.105E+03  5.628E-29  4.635E-18
3.076E+03  5.846E-29  4.770E-18
3.048E+03  6.073E-29  4.910E-18
3.020E+03  6.308E-29  5.053E-18
2.992E+03  6.552E-29  5.201E-18
2.965E+03  6.806E-29  5.352E-18
2.938E+03  7.069E-29  5.508E-18
2.911E+03  7.343E-29  5.669E-18
2.884E+03  7.627E-29  5.835E-18
2.858E+03  7.923E-29  6.005E-18
2.831E+03  8.230E-29  6.181E-18
2.805E+03  8.549E-29  6.362E-18
2.780E+03  8.881E-29  6.548E-18
2.754E+03  9.226E-29  6.741E-18
2.729E+03  9.585E-29  6.938E-18
2.704E+03  9.958E-29  7.142E-18
2.679E+03  1.035E-28  7.352E-18
2.655E+03  1.075E-28  7.568E-18
2.630E+03  1.117E-28  7.791E-18
2.606E+03  1.160E-28  8.021E-18
2.582E+03  1.205E-28  8.257E-18
2.559E+03  1.252E-28  8.501E-18
2.535E+03  1.301E-28  8.751E-18
2.512E+03  1.352E-28  9.010E-18
2.489E+03  1.405E-28  9.276E-18
2.466E+03  1.460E-28  9.550E-18
2.443E+03  1.517E-28  9.833E-18
2.421E+03  1.576E-28  1.012E-17
2.399E+03  1.638E-28  1.042E-17
2.377E+03  1.702E-28  1.073E-17
2.355E+03  1.769E-28  1.105E-17
2.333E+03  1.838E-28  1.138E-17
2.312E+03  1.911E-28  1.172E-17
2.291E+03  1.985E-28  1.207E-17
2.270E+03  2.063E-28  1.242E-17
2.249E+03  2.144E-28  1.279E-17
2.228E+03  2.229E-28  1.317E-17
2.208E+03  2.316E-28  1.357E-17
2.188E+03  2.407E-28  1.397E-17
2.168E+03  2.502E-28  1.439E-17
2.148E+03  2.600E-28  1.481E-17
2.128E+03  2.703E-28  1.526E-17
2.109E+03  2.809E-28  1.571E-17
2.089E+03  2.919E-28  1.618E-17
2.070E+03  3.034E-28  1.666E-17
2.051E+03  3.154E-28  1.716E-17
2.032E+03  3.278E-28  1.767E-17
2.014E+03  3.407E-28  1.820E-17
1.995E+03  3.541E-28  1.874E-17
1.977E+03  3.681E-28  1.930E-17
1.959E+03  3.826E-28  1.988E-17
1.941E+03  3.977E-28  2.047E-17
1.923E+03  4.134E-28  2.109E-17
1.905E+03  4.297E-28  2.172E-17
1.888E+03  4.466E-28  2.237E-17
1.871E+03  4.642E-28  2.304E-17
1.854E+03  4.825E-28  2.373E-17
1.837E+03  5.016E-28  2.444E-17
1.820E+03  5.214E-28  2.517E-17
1.803E+03  5.420E-28  2.592E-17
1.786E+03  5.634E-28  2.670E-17
1.770E+03  5.856E-28  2.750E-17
1.754E+03  6.087E-28  2.832E-17
1.738E+03  6.328E-28  2.917E-17
1.722E+03  6.578E-28  3.004E-17
1.706E+03  6.838E-28  3.094E-17
1.690E+03  7.108E-28  3.187E-17
1.675E+03  7.389E-28  3.283E-17
1.660E+03  7.681E-28  3.381E-17
1.644E+03  7.984E-28  3.482E-17
1.629E+03  8.299E-28  3.587E-17
1.614E+03  8.627E-28  3.694E-17
1.600E+03  8.968E-28  3.805E-17
1.585E+03  9.322E-28  3.919E-17
1.570E+03  9.691E-28  4.037E-17
1.556E+03  1.007E-27  4.158E-17
1.542E+03  1.047E-27  4.282E-17
1.528E+03  1.088E-27  4.410E-17
1.514E+03  1.131E-27  4.543E-17
1.500E+03  1.176E-27  4.679E-17
1.486E+03  1.223E-27  4.819E-17
1.472E+03  1.271E-27  4.963E-17
1.459E+03  1.321E-27  5.112E-17
1.445E+03  1.373E-27  5.265E-17
1.432E+03  1.427E-27  5.423E-17
1.419E+03  1.484E-27  5.585E-17
1.406E+03  1.542E-27  5.752E-17
1.393E+03  1.603E-27  5.925E-17
1.380E+03  1.667E-27  6.102E-17
1.368E+03  1.732E-27  6.285E-17
1.355E+03  1.801E-27  6.473E-17
1.343E+03  1.872E-27  6.666E-17
1.330E+03  1.945E-27  6.865E-17
1.318E+03  2.022E-27  7.071E-17
1.306E+03  2.102E-27  7.282E-17
1.294E+03  2.184E-27  7.499E-17
1.282E+03  2.270E-27  7.723E-17
1.271E+03  2.360E-27  7.953E-17
1.259E+03  2.453E-27  8.190E-17
1.247E+03  2.549E-27  8.434E-17
1.236E+03  2.649E-27  8.685E-17
1.225E+03  2.753E-27  8.944E-17
1.213E+03  2.861E-27  9.210E-17
1.202E+03  2.974E-27  9.484E-17
1.191E+03  3.090E-27  9.765E-17
1.180E+03  3.212E-27  1.006E-16
1.169E+03  3.337E-27  1.035E-16
1.159E+03  3.468E-27  1.066E-16
1.148E+03  3.604E-27  1.098E-16
1.138E+03  3.745E-27  1.130E-16
1.127E+03  3.891E-27  1.164E-16
1.117E+03  4.044E-27  1.198E-16
1.107E+03  4.201E-27  1.233E-16
1.096E+03  4.365E-27  1.270E-16
1.086E+03  4.536E-27  1.307E-16
1.076E+03  4.713E-27  1.346E-16
1.067E+03  4.896E-27  1.385E-16
1.057E+03  5.087E-27  1.426E-16
1.047E+03  5.284E-27  1.468E-16
1.038E+03  5.490E-27  1.511E-16
1.028E+03  5.703E-27  1.555E-16
1.019E+03  5.924E-27  1.601E-16
1.009E+03  6.154E-27  1.647E-16
1.000E+03  6.392E-27  1.696E-16
9.908E+02  6.640E-27  1.745E-16
9.817E+02  6.897E-27  1.796E-16
9.727E+02  7.164E-27  1.849E-16
9.638E+02  7.441E-27  1.902E-16
9.550E+02  7.729E-27  1.958E-16
9.462E+02  8.027E-27  2.015E-16
9.376E+02  8.336E-27  2.073E-16
9.290E+02  8.658E-27  2.133E-16
9.204E+02  8.991E-27  2.195E-16
9.120E+02  9.337E-27  2.259E-16
9.036E+02  9.695E-27  2.324E-16
8.954E+02  1.007E-26  2.391E-16
8.872E+02  1.045E-26  2.460E-16
8.790E+02  1.085E-26  2.530E-16
8.710E+02  1.127E-26  2.603E-16
8.630E+02  1.170E-26  2.678E-16
8.551E+02  1.214E-26  2.754E-16
8.472E+02  1.260E-26  2.833E-16
8.395E+02  1.308E-26  2.913E-16
8.318E+02  1.358E-26  2.996E-16
8.241E+02  1.410E-26  3.081E-16
8.166E+02  1.463E-26  3.169E-16
8.091E+02  1.518E-26  3.258E-16
8.017E+02  1.576E-26  3.350E-16
7.943E+02  1.635E-26  3.445E-16
7.870E+02  1.696E-26  3.542E-16
7.798E+02  1.760E-26  3.641E-16
7.727E+02  1.826E-26  3.743E-16
7.656E+02  1.895E-26  3.848E-16
7.586E+02  1.966E-26  3.956E-16
7.516E+02  2.039E-26  4.066E-16
7.447E+02  2.116E-26  4.180E-16
7.379E+02  2.195E-26  4.296E-16
7.311E+02  2.277E-26  4.416E-16
7.244E+02  2.362E-26  4.539E-16
7.178E+02  2.450E-26  4.665E-16
7.112E+02  2.541E-26  4.795E-16
7.047E+02  2.636E-26  4.927E-16
6.982E+02  2.734E-26  5.064E-16
6.918E+02  2.836E-26  5.204E-16
6.855E+02  2.941E-26  5.348E-16
6.792E+02  3.050E-26  5.495E-16
6.730E+02  3.163E-26  5.646E-16
6.668E+02  3.279E-26  5.801E-16
6.607E+02  3.400E-26  5.959E-16
6.546E+02  3.526E-26  6.123E-16
6.486E+02  3.656E-26  6.291E-16
6.427E+02  3.791E-26  6.464E-16
6.368E+02  3.931E-26  6.641E-16
6.310E+02  4.076E-26  6.822E-16
6.252E+02  4.226E-26  7.009E-16
6.194E+02  4.382E-26  7.200E-16
6.138E+02  4.543E-26  7.396E-16
6.081E+02  4.710E-26  7.597E-16
6.026E+02  4.882E-26  7.804E-16
5.970E+02  5.061E-26  8.016E-16
5.916E+02  5.247E-26  8.233E-16
5.861E+02  5.438E-26  8.456E-16
5.808E+02  5.637E-26  8.684E-16
5.754E+02  5.843E-26  8.918E-16
5.702E+02  6.056E-26  9.159E-16
5.649E+02  6.276E-26  9.405E-16
5.598E+02  6.504E-26  9.658E-16
5.546E+02  6.741E-26  9.917E-16
5.495E+02  6.985E-26  1.018E-15
5.445E+02  7.238E-26  1.045E-15
5.395E+02  7.500E-26  1.073E-15
5.346E+02  7.771E-26  1.102E-15
5.297E+02  8.052E-26  1.131E-15
5.248E+02  8.342E-26  1.161E-15
5.200E+02  8.643E-26  1.192E-15
5.152E+02  8.953E-26  1.224E-15
5.105E+02  9.275E-26  1.256E-15
5.058E+02  9.607E-26  1.289E-15
5.012E+02  9.951E-26  1.323E-15
4.966E+02  1.031E-25  1.358E-15
4.920E+02  1.067E-25  1.393E-15
4.875E+02  1.105E-25  1.430E-15
4.831E+02  1.145E-25  1.467E-15
4.786E+02  1.185E-25  1.505E-15
4.742E+02  1.227E-25  1.544E-15
4.699E+02  1.271E-25  1.584E-15
4.656E+02  1.316E-25  1.625E-15
4.613E+02  1.362E-25  1.667E-15
4.571E+02  1.410E-25  1.710E-15
4.529E+02  1.460E-25  1.754E-15
4.487E+02  1.511E-25  1.798E-15
4.446E+02  1.564E-25  1.844E-15
4.406E+02  1.618E-25  1.891E-15
4.365E+02  1.675E-25  1.939E-15
4.325E+02  1.733E-25  1.988E-15
4.285E+02  1.793E-25  2.038E-15
4.246E+02  1.855E-25  2.089E-15
4.207E+02  1.919E-25  2.142E-15
4.169E+02  1.985E-25  2.195E-15
4.130E+02  2.054E-25  2.250E-15
4.093E+02  2.124E-25  2.306E-15
4.055E+02  2.197E-25  2.363E-15
4.018E+02  2.272E-25  2.422E-15
3.981E+02  2.350E-25  2.481E-15
3.945E+02  2.430E-25  2.542E-15
3.908E+02  2.512E-25  2.605E-15
3.873E+02  2.597E-25  2.668E-15
3.837E+02  2.685E-25  2.733E-15
3.802E+02  2.776E-25  2.799E-15
3.767E+02  2.869E-25  2.867E-15
3.733E+02  2.965E-25  2.936E-15
3.698E+02  3.064E-25  3.006E-15
3.664E+02  3.167E-25  3.078E-15
3.631E+02  3.272E-25  3.151E-15
3.597E+02  3.381E-25  3.226E-15
3.565E+02  3.492E-25  3.302E-15
3.532E+02  3.608E-25  3.380E-15
3.499E+02  3.726E-25  3.459E-15
3.467E+02  3.848E-25  3.539E-15
3.436E+02  3.974E-25  3.622E-15
3.404E+02  4.103E-25  3.705E-15
3.373E+02  4.237E-25  3.790E-15
3.342E+02  4.374E-25  3.877E-15
3.311E+02  4.515E-25  3.966E-15
3.281E+02  4.660E-25  4.055E-15
3.251E+02  4.809E-25  4.147E-15
3.221E+02  4.963E-25  4.240E-15
3.192E+02  5.120E-25  4.335E-15
3.162E+02  5.283E-25  4.431E-15
3.133E+02  5.449E-25  4.529E-15
3.105E+02  5.621E-25  4.629E-15
3.076E+02  5.797E-25  4.730E-15
3.048E+02  5.978E-25  4.833E-15
3.020E+02  6.163E-25  4.937E-15
2.992E+02  6.354E-25  5.043E-15
2.965E+02  6.550E-25  5.151E-15
2.938E+02  6.751E-25  5.261E-15
2.911E+02  6.957E-25  5.372E-15
2.884E+02  7.169E-25  5.484E-15
2.858E+02  7.386E-25  5.599E-15
2.831E+02  7.609E-25  5.715E-15
2.805E+02  7.838E-25  5.832E-15
2.780E+02  8.072E-25  5.952E-15
2.754E+02  8.312E-25  6.073E-15
2.729E+02  8.559E-25  6.196E-15
2.704E+02  8.812E-25  6.321E-15
2.679E+02  9.072E-25  6.447E-15
2.655E+02  9.338E-25  6.576E-15
2.630E+02  9.611E-25  6.705E-15
2.606E+02  9.890E-25  6.837E-15
2.582E+02  1.018E-24  6.970E-15
2.559E+02  1.047E-24  7.104E-15
2.535E+02  1.076E-24  7.238E-15
2.512E+02  1.107E-24  7.373E-15
2.489E+02  1.137E-24  7.506E-15
2.466E+02  1.167E-24  7.637E-15
2.443E+02  1.198E-24  7.767E-15
2.421E+02  1.230E-24  7.898E-15
2.399E+02  1.262E-24  8.027E-15
2.377E+02  1.293E-24  8.154E-15
2.355E+02  1.326E-24  8.282E-15
2.333E+02  1.359E-24  8.410E-15
2.312E+02  1.392E-24  8.539E-15
2.291E+02  1.426E-24  8.668E-15
2.270E+02  1.461E-24  8.797E-15
2.249E+02  1.496E-24  8.927E-15
2.228E+02  1.532E-24  9.057E-15
2.208E+02  1.569E-24  9.187E-15
2.188E+02  1.606E-24  9.318E-15
2.168E+02  1.643E-24  9.449E-15
2.148E+02  1.681E-24  9.579E-15
2.128E+02  1.720E-24  9.710E-15
2.109E+02  1.759E-24  9.841E-15
2.089E+02  1.799E-24  9.972E-15
2.070E+02  1.840E-24  1.010E-14
2.051E+02  1.881E-24  1.023E-14
2.032E+02  1.922E-24  1.036E-14
2.014E+02  1.965E-24  1.049E-14
1.995E+02  2.007E-24  1.062E-14
1.977E+02  2.050E-24  1.075E-14
1.959E+02  2.094E-24  1.088E-14
1.941E+02  2.139E-24  1.101E-14
1.923E+02  2.183E-24  1.114E-14
1.905E+02  2.229E-24  1.127E-14
1.888E+02  2.275E-24  1.139E-14
1.871E+02  2.322E-24  1.152E-14
1.854E+02  2.369E-24  1.165E-14
1.837E+02  2.416E-24  1.177E-14
1.820E+02  2.465E-24  1.190E-14
1.803E+02  2.513E-24  1.202E-14
1.786E+02  2.563E-24  1.214E-14
1.770E+02  2.613E-24  1.227E-14
1.754E+02  2.663E-24  1.239E-14
1.738E+02  2.715E-24  1.251E-14
1.722E+02  2.767E-24  1.264E-14
1.706E+02  2.819E-24  1.276E-14
1.690E+02  2.872E-24  1.288E-14
1.675E+02  2.926E-24  1.300E-14
1.660E+02  2.980E-24  1.312E-14
1.644E+02  3.036E-24  1.324E-14
1.629E+02  3.092E-24  1.336E-14
1.614E+02  3.149E-24  1.348E-14
1.600E+02  3.206E-24  1.360E-14
1.585E+02  3.265E-24  1.373E-14
1.570E+02  3.325E-24  1.385E-14
1.556E+02  3.385E-24  1.397E-14
1.542E+02  3.447E-24  1.410E-14
1.528E+02  3.509E-24  1.422E-14
1.514E+02  3.573E-24  1.435E-14
1.500E+02  3.638E-24  1.447E-14
1.486E+02  3.703E-24  1.460E-14
1.472E+02  3.769E-24  1.472E-14
1.459E+02  3.835E-24  1.484E-14
1.445E+02  3.899E-24  1.495E-14
1.432E+02  3.963E-24  1.505E-14
1.419E+02  4.022E-24  1.514E-14
1.406E+02  4.078E-24  1.521E-14
1.393E+02  4.128E-24  1.526E-14
1.380E+02  4.172E-24  1.528E-14
1.368E+02  4.211E-24  1.528E-14
1.355E+02  4.244E-24  1.526E-14
1.343E+02  4.274E-24  1.522E-14
1.330E+02  4.302E-24  1.518E-14
1.318E+02  4.329E-24  1.514E-14
1.306E+02  4.355E-24  1.509E-14
1.294E+02  4.382E-24  1.504E-14
1.282E+02  4.409E-24  1.500E-14
1.271E+02  4.437E-24  1.495E-14
1.259E+02  4.465E-24  1.491E-14
1.247E+02  4.495E-24  1.487E-14
1.236E+02  4.525E-24  1.484E-14
1.225E+02  4.556E-24  1.480E-14
1.213E+02  4.588E-24  1.477E-14
1.202E+02  4.620E-24  1.473E-14
1.191E+02  4.653E-24  1.470E-14
1.180E+02  4.686E-24  1.467E-14
1.169E+02  4.718E-24  1.464E-14
1.159E+02  4.751E-24  1.460E-14
1.148E+02  4.784E-24  1.457E-14
1.138E+02  4.818E-24  1.454E-14
1.127E+02  4.851E-24  1.450E-14
1.117E+02  4.885E-24  1.447E-14
1.107E+02  4.918E-24  1.444E-14
1.096E+02  4.952E-24  1.440E-14
1.086E+02  4.985E-24  1.437E-14
1.076E+02  5.018E-24  1.433E-14
1.067E+02  5.051E-24  1.429E-14
1.057E+02  5.084E-24  1.425E-14
1.047E+02  5.116E-24  1.421E-14
1.038E+02  5.148E-24  1.417E-14
1.028E+02  5.180E-24  1.412E-14
1.019E+02  5.210E-24  1.408E-14
1.009E+02  5.241E-24  1.403E-14
1.000E+02  5.271E-24  1.398E-14
9.908E+01  5.299E-24  1.393E-14
9.817E+01  5.328E-24  1.387E-14
9.727E+01  5.355E-24  1.382E-14
9.638E+01  5.382E-24  1.376E-14
9.550E+01  5.409E-24  1.370E-14
9.462E+01  5.434E-24  1.364E-14
9.376E+01  5.459E-24  1.358E-14
9.290E+01  5.483E-24  1.351E-14
9.204E+01  5.506E-24  1.344E-14
9.120E+01  5.528E-24  1.337E-14
9.036E+01  5.550E-24  1.330E-14
8.954E+01  5.570E-24  1.323E-14
8.872E+01  5.591E-24  1.316E-14
8.790E+01  5.610E-24  1.308E-14
8.710E+01  5.629E-24  1.300E-14
8.630E+01  5.647E-24  1.293E-14
8.551E+01  5.665E-24  1.285E-14
8.472E+01  5.680E-24  1.277E-14
8.395E+01  5.696E-24  1.268E-14
8.318E+01  5.711E-24  1.260E-14
8.241E+01  5.725E-24  1.252E-14
8.166E+01  5.739E-24  1.243E-14
8.091E+01  5.752E-24  1.234E-14
8.017E+01  5.764E-24  1.226E-14
7.943E+01  5.775E-24  1.217E-14
7.870E+01  5.786E-24  1.208E-14
7.798E+01  5.795E-24  1.199E-14
7.727E+01  5.804E-24  1.190E-14
7.656E+01  5.812E-24  1.180E-14
7.586E+01  5.819E-24  1.171E-14
7.516E+01  5.825E-24  1.161E-14
7.447E+01  5.831E-24  1.152E-14
7.379E+01  5.834E-24  1.142E-14
7.311E+01  5.838E-24  1.132E-14
7.244E+01  5.840E-24  1.122E-14
7.178E+01  5.842E-24  1.112E-14
7.112E+01  5.843E-24  1.102E-14
7.047E+01  5.844E-24  1.092E-14
6.982E+01  5.844E-24  1.082E-14
6.918E+01  5.844E-24  1.072E-14
6.855E+01  5.842E-24  1.062E-14
6.792E+01  5.840E-24  1.052E-14
6.730E+01  5.837E-24  1.042E-14
6.668E+01  5.833E-24  1.032E-14
6.607E+01  5.829E-24  1.021E-14
6.546E+01  5.823E-24  1.011E-14
6.486E+01  5.818E-24  1.001E-14
6.427E+01  5.811E-24  9.907E-15
6.368E+01  5.804E-24  9.804E-15
6.310E+01  5.796E-24  9.701E-15
6.252E+01  5.788E-24  9.599E-15
6.194E+01  5.780E-24  9.497E-15
6.138E+01  5.770E-24  9.395E-15
6.081E+01  5.761E-24  9.293E-15
6.026E+01  5.750E-24  9.191E-15
5.970E+01  5.739E-24  9.089E-15
5.916E+01  5.727E-24  8.987E-15
5.861E+01  5.715E-24  8.885E-15
5.808E+01  5.702E-24  8.784E-15
5.754E+01  5.689E-24  8.683E-15
5.702E+01  5.675E-24  8.583E-15
5.649E+01  5.661E-24  8.483E-15
5.598E+01  5.646E-24  8.383E-15
5.546E+01  5.631E-24  8.285E-15
5.495E+01  5.616E-24  8.186E-15
5.445E+01  5.600E-24  8.089E-15
5.395E+01  5.584E-24  7.991E-15
5.346E+01  5.568E-24  7.895E-15
5.297E+01  5.551E-24  7.799E-15
5.248E+01  5.533E-24  7.703E-15
5.200E+01  5.516E-24  7.608E-15
5.152E+01  5.498E-24  7.514E-15
5.105E+01  5.479E-24  7.419E-15
5.058E+01  5.460E-24  7.326E-15
5.012E+01  5.440E-24  7.233E-15
4.966E+01  5.421E-24  7.140E-15
