Dust emission from Draine & Li (2007): ApJ 657, 810-837
================================================================
        10 = grain model
 4.000E-08 4.000E-01 5.000E-06 = a_01 (cm) , sigma_1 , b_C1/0.92
 2.500E-07 4.000E-01 5.000E-06 = a_02 (cm) , sigma_2 , b_C2/0.92
 1.000E-01 1.000E+06 2.000E+00 = Umin , Umax, beta (dN/dU propto U^{-beta})
 1.612E+00 = <U> 
     mmp83 = radfield
 1.683E-24 = power/H (erg s-1)
 band   nu*P_nu(band) j_nu(band)
 (um)   (erg s-1 H-1)(Jy cm2 sr-1 H-1)
1.270E+00  4.821E-27  1.624E-19 COBE-DIRBE
2.220E+00  6.665E-27  3.925E-19 COBE-DIRBE
3.530E+00  3.705E-26  3.469E-18 COBE-DIRBE
4.880E+00  2.221E-26  2.875E-18 COBE-DIRBE
1.229E+01  2.879E-25  9.385E-17 COBE-DIRBE
2.079E+01  4.900E-25  2.702E-16 COBE-DIRBE
5.599E+01  5.711E-25  8.481E-16 COBE-DIRBE
9.770E+01  4.522E-25  1.172E-15 COBE-DIRBE
1.479E+02  3.545E-25  1.391E-15 COBE-DIRBE
2.479E+02  1.629E-25  1.071E-15 COBE-DIRBE
1.200E+01  2.822E-25  8.982E-17 IRAS
2.500E+01  5.285E-25  3.505E-16 IRAS
6.000E+01  5.594E-25  8.903E-16 IRAS
1.000E+02  4.471E-25  1.186E-15 IRAS
3.550E+00  4.274E-26  4.025E-18 SST-IRAC
4.493E+00  1.566E-26  1.867E-18 SST-IRAC
5.731E+00  1.218E-25  1.852E-17 SST-IRAC
7.872E+00  3.329E-25  6.951E-17 SST-IRAC
2.368E+01  5.035E-25  3.162E-16 SST-MIPS
7.142E+01  4.704E-25  8.912E-16 SST-MIPS
1.559E+02  3.228E-25  1.335E-15 SST-MIPS
1.600E+01  3.215E-25  1.364E-16 SST-IRSPU
2.200E+01  5.153E-25  3.007E-16 SST-IRSPU











lambda    nu*dP/dnu     j_nu
 (um)   (erg s-1 H-1)(Jy cm2 sr-1 H-1)
1.000E+04  1.480E-31  3.926E-20
9.908E+03  1.534E-31  4.031E-20
9.817E+03  1.589E-31  4.139E-20
9.727E+03  1.647E-31  4.250E-20
9.638E+03  1.707E-31  4.363E-20
9.550E+03  1.768E-31  4.480E-20
9.462E+03  1.832E-31  4.599E-20
9.376E+03  1.899E-31  4.722E-20
9.290E+03  1.967E-31  4.848E-20
9.204E+03  2.039E-31  4.978E-20
9.120E+03  2.112E-31  5.111E-20
9.036E+03  2.189E-31  5.247E-20
8.954E+03  2.268E-31  5.386E-20
8.872E+03  2.349E-31  5.529E-20
8.790E+03  2.434E-31  5.675E-20
8.710E+03  2.522E-31  5.826E-20
8.630E+03  2.613E-31  5.980E-20
8.551E+03  2.707E-31  6.139E-20
8.472E+03  2.804E-31  6.302E-20
8.395E+03  2.906E-31  6.470E-20
8.318E+03  3.011E-31  6.642E-20
8.241E+03  3.119E-31  6.819E-20
8.166E+03  3.232E-31  7.001E-20
8.091E+03  3.349E-31  7.187E-20
8.017E+03  3.470E-31  7.379E-20
7.943E+03  3.596E-31  7.576E-20
7.870E+03  3.726E-31  7.779E-20
7.798E+03  3.861E-31  7.987E-20
7.727E+03  4.001E-31  8.201E-20
7.656E+03  4.146E-31  8.420E-20
7.586E+03  4.297E-31  8.646E-20
7.516E+03  4.453E-31  8.878E-20
7.447E+03  4.615E-31  9.116E-20
7.379E+03  4.782E-31  9.361E-20
7.311E+03  4.956E-31  9.612E-20
7.244E+03  5.137E-31  9.871E-20
7.178E+03  5.324E-31  1.014E-19
7.112E+03  5.518E-31  1.041E-19
7.047E+03  5.719E-31  1.069E-19
6.982E+03  5.927E-31  1.098E-19
6.918E+03  6.143E-31  1.127E-19
6.855E+03  6.367E-31  1.158E-19
6.792E+03  6.599E-31  1.189E-19
6.730E+03  6.839E-31  1.221E-19
6.668E+03  7.089E-31  1.254E-19
6.607E+03  7.347E-31  1.288E-19
6.546E+03  7.616E-31  1.322E-19
6.486E+03  7.894E-31  1.358E-19
6.427E+03  8.183E-31  1.395E-19
6.368E+03  8.482E-31  1.433E-19
6.310E+03  8.792E-31  1.472E-19
6.252E+03  9.114E-31  1.511E-19
6.194E+03  9.448E-31  1.552E-19
6.138E+03  9.795E-31  1.595E-19
6.081E+03  1.015E-30  1.638E-19
6.026E+03  1.053E-30  1.682E-19
5.970E+03  1.091E-30  1.728E-19
5.916E+03  1.131E-30  1.775E-19
5.861E+03  1.173E-30  1.824E-19
5.808E+03  1.216E-30  1.873E-19
5.754E+03  1.261E-30  1.924E-19
5.702E+03  1.307E-30  1.977E-19
5.649E+03  1.355E-30  2.031E-19
5.598E+03  1.405E-30  2.087E-19
5.546E+03  1.457E-30  2.144E-19
5.495E+03  1.511E-30  2.202E-19
5.445E+03  1.566E-30  2.263E-19
5.395E+03  1.624E-30  2.324E-19
5.346E+03  1.684E-30  2.388E-19
5.297E+03  1.746E-30  2.454E-19
5.248E+03  1.811E-30  2.521E-19
5.200E+03  1.878E-30  2.590E-19
5.152E+03  1.947E-30  2.661E-19
5.105E+03  2.019E-30  2.735E-19
5.058E+03  2.094E-30  2.810E-19
5.012E+03  2.172E-30  2.887E-19
4.966E+03  2.252E-30  2.966E-19
4.920E+03  2.335E-30  3.048E-19
4.875E+03  2.422E-30  3.132E-19
4.831E+03  2.512E-30  3.218E-19
4.786E+03  2.605E-30  3.307E-19
4.742E+03  2.701E-30  3.398E-19
4.699E+03  2.802E-30  3.492E-19
4.656E+03  2.906E-30  3.589E-19
4.613E+03  3.014E-30  3.688E-19
4.571E+03  3.126E-30  3.790E-19
4.529E+03  3.242E-30  3.895E-19
4.487E+03  3.363E-30  4.003E-19
4.446E+03  3.488E-30  4.113E-19
4.406E+03  3.618E-30  4.228E-19
4.365E+03  3.752E-30  4.345E-19
4.325E+03  3.892E-30  4.466E-19
4.285E+03  4.037E-30  4.590E-19
4.246E+03  4.188E-30  4.717E-19
4.207E+03  4.344E-30  4.848E-19
4.169E+03  4.507E-30  4.983E-19
4.130E+03  4.675E-30  5.122E-19
4.093E+03  4.850E-30  5.265E-19
4.055E+03  5.031E-30  5.412E-19
4.018E+03  5.219E-30  5.563E-19
3.981E+03  5.414E-30  5.718E-19
3.945E+03  5.617E-30  5.877E-19
3.908E+03  5.826E-30  6.041E-19
3.873E+03  6.044E-30  6.209E-19
3.837E+03  6.271E-30  6.382E-19
3.802E+03  6.505E-30  6.561E-19
3.767E+03  6.749E-30  6.744E-19
3.733E+03  7.002E-30  6.933E-19
3.698E+03  7.265E-30  7.127E-19
3.664E+03  7.537E-30  7.326E-19
3.631E+03  7.820E-30  7.532E-19
3.597E+03  8.114E-30  7.743E-19
3.565E+03  8.419E-30  7.960E-19
3.532E+03  8.736E-30  8.184E-19
3.499E+03  9.064E-30  8.414E-19
3.467E+03  9.406E-30  8.651E-19
3.436E+03  9.760E-30  8.894E-19
3.404E+03  1.013E-29  9.145E-19
3.373E+03  1.051E-29  9.402E-19
3.342E+03  1.091E-29  9.668E-19
3.311E+03  1.132E-29  9.940E-19
3.281E+03  1.174E-29  1.022E-18
3.251E+03  1.219E-29  1.051E-18
3.221E+03  1.265E-29  1.081E-18
3.192E+03  1.313E-29  1.111E-18
3.162E+03  1.362E-29  1.143E-18
3.133E+03  1.414E-29  1.175E-18
3.105E+03  1.467E-29  1.208E-18
3.076E+03  1.523E-29  1.243E-18
3.048E+03  1.580E-29  1.278E-18
3.020E+03  1.640E-29  1.314E-18
2.992E+03  1.702E-29  1.351E-18
2.965E+03  1.767E-29  1.389E-18
2.938E+03  1.833E-29  1.429E-18
2.911E+03  1.903E-29  1.469E-18
2.884E+03  1.975E-29  1.511E-18
2.858E+03  2.049E-29  1.553E-18
2.831E+03  2.127E-29  1.598E-18
2.805E+03  2.208E-29  1.643E-18
2.780E+03  2.291E-29  1.689E-18
2.754E+03  2.378E-29  1.737E-18
2.729E+03  2.468E-29  1.787E-18
2.704E+03  2.562E-29  1.838E-18
2.679E+03  2.659E-29  1.890E-18
2.655E+03  2.760E-29  1.944E-18
2.630E+03  2.865E-29  1.999E-18
2.606E+03  2.974E-29  2.056E-18
2.582E+03  3.087E-29  2.114E-18
2.559E+03  3.204E-29  2.175E-18
2.535E+03  3.326E-29  2.237E-18
2.512E+03  3.453E-29  2.300E-18
2.489E+03  3.584E-29  2.366E-18
2.466E+03  3.720E-29  2.434E-18
2.443E+03  3.862E-29  2.503E-18
2.421E+03  4.009E-29  2.575E-18
2.399E+03  4.162E-29  2.648E-18
2.377E+03  4.321E-29  2.724E-18
2.355E+03  4.485E-29  2.802E-18
2.333E+03  4.656E-29  2.882E-18
2.312E+03  4.834E-29  2.965E-18
2.291E+03  5.018E-29  3.049E-18
2.270E+03  5.210E-29  3.137E-18
2.249E+03  5.408E-29  3.226E-18
2.228E+03  5.615E-29  3.319E-18
2.208E+03  5.829E-29  3.414E-18
2.188E+03  6.052E-29  3.512E-18
2.168E+03  6.283E-29  3.612E-18
2.148E+03  6.522E-29  3.716E-18
2.128E+03  6.771E-29  3.823E-18
2.109E+03  7.030E-29  3.932E-18
2.089E+03  7.298E-29  4.045E-18
2.070E+03  7.577E-29  4.161E-18
2.051E+03  7.867E-29  4.280E-18
2.032E+03  8.167E-29  4.403E-18
2.014E+03  8.479E-29  4.529E-18
1.995E+03  8.803E-29  4.659E-18
1.977E+03  9.139E-29  4.792E-18
1.959E+03  9.487E-29  4.930E-18
1.941E+03  9.850E-29  5.071E-18
1.923E+03  1.023E-28  5.216E-18
1.905E+03  1.062E-28  5.366E-18
1.888E+03  1.102E-28  5.519E-18
1.871E+03  1.144E-28  5.678E-18
1.854E+03  1.188E-28  5.840E-18
1.837E+03  1.233E-28  6.008E-18
1.820E+03  1.280E-28  6.180E-18
1.803E+03  1.329E-28  6.357E-18
1.786E+03  1.380E-28  6.539E-18
1.770E+03  1.432E-28  6.726E-18
1.754E+03  1.487E-28  6.919E-18
1.738E+03  1.544E-28  7.117E-18
1.722E+03  1.603E-28  7.320E-18
1.706E+03  1.664E-28  7.530E-18
1.690E+03  1.727E-28  7.745E-18
1.675E+03  1.793E-28  7.967E-18
1.660E+03  1.861E-28  8.194E-18
1.644E+03  1.932E-28  8.429E-18
1.629E+03  2.006E-28  8.669E-18
1.614E+03  2.082E-28  8.917E-18
1.600E+03  2.162E-28  9.172E-18
1.585E+03  2.244E-28  9.433E-18
1.570E+03  2.329E-28  9.702E-18
1.556E+03  2.418E-28  9.979E-18
1.542E+03  2.510E-28  1.026E-17
1.528E+03  2.605E-28  1.056E-17
1.514E+03  2.704E-28  1.086E-17
1.500E+03  2.807E-28  1.116E-17
1.486E+03  2.913E-28  1.148E-17
1.472E+03  3.024E-28  1.181E-17
1.459E+03  3.139E-28  1.214E-17
1.445E+03  3.258E-28  1.249E-17
1.432E+03  3.381E-28  1.284E-17
1.419E+03  3.509E-28  1.321E-17
1.406E+03  3.642E-28  1.358E-17
1.393E+03  3.780E-28  1.397E-17
1.380E+03  3.923E-28  1.437E-17
1.368E+03  4.072E-28  1.477E-17
1.355E+03  4.226E-28  1.519E-17
1.343E+03  4.385E-28  1.562E-17
1.330E+03  4.551E-28  1.606E-17
1.318E+03  4.723E-28  1.651E-17
1.306E+03  4.901E-28  1.698E-17
1.294E+03  5.086E-28  1.746E-17
1.282E+03  5.277E-28  1.795E-17
1.271E+03  5.476E-28  1.846E-17
1.259E+03  5.682E-28  1.897E-17
1.247E+03  5.896E-28  1.951E-17
1.236E+03  6.117E-28  2.005E-17
1.225E+03  6.347E-28  2.062E-17
1.213E+03  6.585E-28  2.119E-17
1.202E+03  6.831E-28  2.179E-17
1.191E+03  7.087E-28  2.239E-17
1.180E+03  7.352E-28  2.302E-17
1.169E+03  7.627E-28  2.366E-17
1.159E+03  7.912E-28  2.432E-17
1.148E+03  8.207E-28  2.499E-17
1.138E+03  8.512E-28  2.569E-17
1.127E+03  8.829E-28  2.640E-17
1.117E+03  9.158E-28  2.713E-17
1.107E+03  9.498E-28  2.788E-17
1.096E+03  9.851E-28  2.865E-17
1.086E+03  1.022E-27  2.944E-17
1.076E+03  1.059E-27  3.025E-17
1.067E+03  1.099E-27  3.108E-17
1.057E+03  1.139E-27  3.193E-17
1.047E+03  1.181E-27  3.281E-17
1.038E+03  1.225E-27  3.371E-17
1.028E+03  1.270E-27  3.463E-17
1.019E+03  1.317E-27  3.557E-17
1.009E+03  1.365E-27  3.654E-17
1.000E+03  1.415E-27  3.753E-17
9.908E+02  1.467E-27  3.855E-17
9.817E+02  1.521E-27  3.960E-17
9.727E+02  1.576E-27  4.067E-17
9.638E+02  1.634E-27  4.177E-17
9.550E+02  1.693E-27  4.290E-17
9.462E+02  1.755E-27  4.405E-17
9.376E+02  1.819E-27  4.524E-17
9.290E+02  1.885E-27  4.645E-17
9.204E+02  1.954E-27  4.770E-17
9.120E+02  2.024E-27  4.897E-17
9.036E+02  2.098E-27  5.028E-17
8.954E+02  2.173E-27  5.162E-17
8.872E+02  2.252E-27  5.299E-17
8.790E+02  2.333E-27  5.439E-17
8.710E+02  2.416E-27  5.582E-17
8.630E+02  2.503E-27  5.729E-17
8.551E+02  2.592E-27  5.880E-17
8.472E+02  2.685E-27  6.034E-17
8.395E+02  2.781E-27  6.192E-17
8.318E+02  2.879E-27  6.353E-17
8.241E+02  2.982E-27  6.518E-17
8.166E+02  3.087E-27  6.687E-17
8.091E+02  3.196E-27  6.860E-17
8.017E+02  3.309E-27  7.037E-17
7.943E+02  3.425E-27  7.217E-17
7.870E+02  3.546E-27  7.402E-17
7.798E+02  3.670E-27  7.591E-17
7.727E+02  3.798E-27  7.785E-17
7.656E+02  3.931E-27  7.983E-17
7.586E+02  4.068E-27  8.185E-17
7.516E+02  4.209E-27  8.392E-17
7.447E+02  4.356E-27  8.605E-17
7.379E+02  4.507E-27  8.822E-17
7.311E+02  4.664E-27  9.045E-17
7.244E+02  4.825E-27  9.272E-17
7.178E+02  4.992E-27  9.505E-17
7.112E+02  5.165E-27  9.744E-17
7.047E+02  5.343E-27  9.988E-17
6.982E+02  5.527E-27  1.024E-16
6.918E+02  5.717E-27  1.049E-16
6.855E+02  5.913E-27  1.075E-16
6.792E+02  6.116E-27  1.102E-16
6.730E+02  6.325E-27  1.129E-16
6.668E+02  6.540E-27  1.157E-16
6.607E+02  6.763E-27  1.185E-16
6.546E+02  6.993E-27  1.214E-16
6.486E+02  7.232E-27  1.244E-16
6.427E+02  7.478E-27  1.275E-16
6.368E+02  7.732E-27  1.306E-16
6.310E+02  7.995E-27  1.338E-16
6.252E+02  8.266E-27  1.371E-16
6.194E+02  8.546E-27  1.404E-16
6.138E+02  8.834E-27  1.438E-16
6.081E+02  9.132E-27  1.473E-16
6.026E+02  9.440E-27  1.509E-16
5.970E+02  9.758E-27  1.545E-16
5.916E+02  1.009E-26  1.583E-16
5.861E+02  1.042E-26  1.621E-16
5.808E+02  1.077E-26  1.660E-16
5.754E+02  1.113E-26  1.699E-16
5.702E+02  1.150E-26  1.740E-16
5.649E+02  1.189E-26  1.781E-16
5.598E+02  1.228E-26  1.824E-16
5.546E+02  1.269E-26  1.867E-16
5.495E+02  1.311E-26  1.911E-16
5.445E+02  1.354E-26  1.956E-16
5.395E+02  1.399E-26  2.002E-16
5.346E+02  1.445E-26  2.049E-16
5.297E+02  1.493E-26  2.097E-16
5.248E+02  1.542E-26  2.146E-16
5.200E+02  1.592E-26  2.196E-16
5.152E+02  1.644E-26  2.247E-16
5.105E+02  1.698E-26  2.300E-16
5.058E+02  1.753E-26  2.353E-16
5.012E+02  1.810E-26  2.407E-16
4.966E+02  1.869E-26  2.462E-16
4.920E+02  1.929E-26  2.518E-16
4.875E+02  1.992E-26  2.576E-16
4.831E+02  2.056E-26  2.634E-16
4.786E+02  2.122E-26  2.694E-16
4.742E+02  2.190E-26  2.755E-16
4.699E+02  2.260E-26  2.817E-16
4.656E+02  2.332E-26  2.880E-16
4.613E+02  2.406E-26  2.944E-16
4.571E+02  2.482E-26  3.010E-16
4.529E+02  2.561E-26  3.076E-16
4.487E+02  2.641E-26  3.144E-16
4.446E+02  2.724E-26  3.213E-16
4.406E+02  2.810E-26  3.284E-16
4.365E+02  2.898E-26  3.355E-16
4.325E+02  2.988E-26  3.428E-16
4.285E+02  3.081E-26  3.502E-16
4.246E+02  3.176E-26  3.578E-16
4.207E+02  3.274E-26  3.654E-16
4.169E+02  3.375E-26  3.732E-16
4.130E+02  3.479E-26  3.811E-16
4.093E+02  3.585E-26  3.892E-16
4.055E+02  3.695E-26  3.974E-16
4.018E+02  3.807E-26  4.058E-16
3.981E+02  3.923E-26  4.143E-16
3.945E+02  4.042E-26  4.229E-16
3.908E+02  4.164E-26  4.316E-16
3.873E+02  4.289E-26  4.406E-16
3.837E+02  4.417E-26  4.496E-16
3.802E+02  4.549E-26  4.588E-16
3.767E+02  4.684E-26  4.681E-16
3.733E+02  4.823E-26  4.775E-16
3.698E+02  4.966E-26  4.871E-16
3.664E+02  5.112E-26  4.969E-16
3.631E+02  5.262E-26  5.067E-16
3.597E+02  5.415E-26  5.167E-16
3.565E+02  5.572E-26  5.269E-16
3.532E+02  5.733E-26  5.371E-16
3.499E+02  5.899E-26  5.476E-16
3.467E+02  6.068E-26  5.581E-16
3.436E+02  6.242E-26  5.688E-16
3.404E+02  6.419E-26  5.796E-16
3.373E+02  6.601E-26  5.906E-16
3.342E+02  6.788E-26  6.017E-16
3.311E+02  6.978E-26  6.129E-16
3.281E+02  7.173E-26  6.243E-16
3.251E+02  7.372E-26  6.357E-16
3.221E+02  7.577E-26  6.473E-16
3.192E+02  7.785E-26  6.591E-16
3.162E+02  7.999E-26  6.710E-16
3.133E+02  8.216E-26  6.829E-16
3.105E+02  8.439E-26  6.950E-16
3.076E+02  8.667E-26  7.072E-16
3.048E+02  8.900E-26  7.195E-16
3.020E+02  9.138E-26  7.320E-16
2.992E+02  9.380E-26  7.445E-16
2.965E+02  9.628E-26  7.572E-16
2.938E+02  9.881E-26  7.699E-16
2.911E+02  1.014E-25  7.828E-16
2.884E+02  1.040E-25  7.957E-16
2.858E+02  1.067E-25  8.088E-16
2.831E+02  1.094E-25  8.219E-16
2.805E+02  1.122E-25  8.352E-16
2.780E+02  1.151E-25  8.485E-16
2.754E+02  1.180E-25  8.619E-16
2.729E+02  1.209E-25  8.754E-16
2.704E+02  1.240E-25  8.891E-16
2.679E+02  1.270E-25  9.029E-16
2.655E+02  1.302E-25  9.168E-16
2.630E+02  1.334E-25  9.307E-16
2.606E+02  1.367E-25  9.447E-16
2.582E+02  1.400E-25  9.588E-16
2.559E+02  1.433E-25  9.727E-16
2.535E+02  1.467E-25  9.865E-16
2.512E+02  1.501E-25  1.000E-15
2.489E+02  1.535E-25  1.013E-15
2.466E+02  1.568E-25  1.026E-15
2.443E+02  1.601E-25  1.038E-15
2.421E+02  1.634E-25  1.050E-15
2.399E+02  1.668E-25  1.061E-15
2.377E+02  1.700E-25  1.072E-15
2.355E+02  1.733E-25  1.083E-15
2.333E+02  1.766E-25  1.093E-15
2.312E+02  1.800E-25  1.104E-15
2.291E+02  1.833E-25  1.114E-15
2.270E+02  1.867E-25  1.124E-15
2.249E+02  1.901E-25  1.134E-15
2.228E+02  1.936E-25  1.144E-15
2.208E+02  1.970E-25  1.154E-15
2.188E+02  2.005E-25  1.164E-15
2.168E+02  2.040E-25  1.173E-15
2.148E+02  2.075E-25  1.182E-15
2.128E+02  2.111E-25  1.192E-15
2.109E+02  2.146E-25  1.200E-15
2.089E+02  2.182E-25  1.209E-15
2.070E+02  2.218E-25  1.218E-15
2.051E+02  2.254E-25  1.226E-15
2.032E+02  2.290E-25  1.234E-15
2.014E+02  2.326E-25  1.242E-15
1.995E+02  2.362E-25  1.250E-15
1.977E+02  2.398E-25  1.258E-15
1.959E+02  2.435E-25  1.265E-15
1.941E+02  2.471E-25  1.272E-15
1.923E+02  2.507E-25  1.279E-15
1.905E+02  2.544E-25  1.286E-15
1.888E+02  2.580E-25  1.292E-15
1.871E+02  2.617E-25  1.299E-15
1.854E+02  2.654E-25  1.305E-15
1.837E+02  2.690E-25  1.311E-15
1.820E+02  2.727E-25  1.316E-15
1.803E+02  2.763E-25  1.322E-15
1.786E+02  2.800E-25  1.327E-15
1.770E+02  2.837E-25  1.332E-15
1.754E+02  2.873E-25  1.337E-15
1.738E+02  2.910E-25  1.341E-15
1.722E+02  2.947E-25  1.346E-15
1.706E+02  2.983E-25  1.350E-15
1.690E+02  3.020E-25  1.354E-15
1.675E+02  3.057E-25  1.358E-15
1.660E+02  3.094E-25  1.362E-15
1.644E+02  3.131E-25  1.366E-15
1.629E+02  3.168E-25  1.369E-15
1.614E+02  3.206E-25  1.373E-15
1.600E+02  3.244E-25  1.376E-15
1.585E+02  3.282E-25  1.380E-15
1.570E+02  3.320E-25  1.383E-15
1.556E+02  3.359E-25  1.386E-15
1.542E+02  3.398E-25  1.390E-15
1.528E+02  3.438E-25  1.393E-15
1.514E+02  3.479E-25  1.397E-15
1.500E+02  3.521E-25  1.400E-15
1.486E+02  3.563E-25  1.404E-15
1.472E+02  3.606E-25  1.408E-15
1.459E+02  3.648E-25  1.412E-15
1.445E+02  3.691E-25  1.415E-15
1.432E+02  3.733E-25  1.418E-15
1.419E+02  3.773E-25  1.420E-15
1.406E+02  3.808E-25  1.420E-15
1.393E+02  3.840E-25  1.419E-15
1.380E+02  3.865E-25  1.415E-15
1.368E+02  3.886E-25  1.410E-15
1.355E+02  3.902E-25  1.403E-15
1.343E+02  3.916E-25  1.395E-15
1.330E+02  3.929E-25  1.386E-15
1.318E+02  3.940E-25  1.378E-15
1.306E+02  3.953E-25  1.369E-15
1.294E+02  3.965E-25  1.361E-15
1.282E+02  3.979E-25  1.353E-15
1.271E+02  3.993E-25  1.346E-15
1.259E+02  4.008E-25  1.338E-15
1.247E+02  4.023E-25  1.331E-15
1.236E+02  4.040E-25  1.324E-15
1.225E+02  4.057E-25  1.318E-15
1.213E+02  4.074E-25  1.311E-15
1.202E+02  4.092E-25  1.305E-15
1.191E+02  4.110E-25  1.299E-15
1.180E+02  4.128E-25  1.292E-15
1.169E+02  4.146E-25  1.286E-15
1.159E+02  4.164E-25  1.280E-15
1.148E+02  4.182E-25  1.274E-15
1.138E+02  4.201E-25  1.268E-15
1.127E+02  4.219E-25  1.261E-15
1.117E+02  4.238E-25  1.256E-15
1.107E+02  4.257E-25  1.250E-15
1.096E+02  4.276E-25  1.244E-15
1.086E+02  4.296E-25  1.238E-15
1.076E+02  4.315E-25  1.232E-15
1.067E+02  4.334E-25  1.226E-15
1.057E+02  4.353E-25  1.220E-15
1.047E+02  4.373E-25  1.215E-15
1.038E+02  4.392E-25  1.209E-15
1.028E+02  4.411E-25  1.203E-15
1.019E+02  4.430E-25  1.197E-15
1.009E+02  4.448E-25  1.191E-15
1.000E+02  4.467E-25  1.185E-15
9.908E+01  4.485E-25  1.179E-15
9.817E+01  4.503E-25  1.173E-15
9.727E+01  4.521E-25  1.166E-15
9.638E+01  4.539E-25  1.160E-15
9.550E+01  4.557E-25  1.154E-15
9.462E+01  4.574E-25  1.148E-15
9.376E+01  4.592E-25  1.142E-15
9.290E+01  4.610E-25  1.136E-15
9.204E+01  4.627E-25  1.130E-15
9.120E+01  4.645E-25  1.124E-15
9.036E+01  4.662E-25  1.117E-15
8.954E+01  4.679E-25  1.111E-15
8.872E+01  4.697E-25  1.105E-15
8.790E+01  4.714E-25  1.099E-15
8.710E+01  4.731E-25  1.093E-15
8.630E+01  4.749E-25  1.087E-15
8.551E+01  4.767E-25  1.081E-15
8.472E+01  4.783E-25  1.075E-15
8.395E+01  4.800E-25  1.069E-15
8.318E+01  4.818E-25  1.063E-15
8.241E+01  4.835E-25  1.057E-15
8.166E+01  4.852E-25  1.051E-15
8.091E+01  4.870E-25  1.045E-15
8.017E+01  4.888E-25  1.039E-15
7.943E+01  4.905E-25  1.034E-15
7.870E+01  4.922E-25  1.028E-15
7.798E+01  4.940E-25  1.022E-15
7.727E+01  4.957E-25  1.016E-15
7.656E+01  4.975E-25  1.010E-15
7.586E+01  4.992E-25  1.005E-15
7.516E+01  5.010E-25  9.989E-16
7.447E+01  5.027E-25  9.931E-16
7.379E+01  5.044E-25  9.873E-16
7.311E+01  5.061E-25  9.816E-16
7.244E+01  5.078E-25  9.758E-16
7.178E+01  5.095E-25  9.701E-16
7.112E+01  5.112E-25  9.644E-16
7.047E+01  5.130E-25  9.589E-16
6.982E+01  5.149E-25  9.536E-16
6.918E+01  5.167E-25  9.482E-16
6.855E+01  5.185E-25  9.428E-16
6.792E+01  5.203E-25  9.373E-16
6.730E+01  5.220E-25  9.319E-16
6.668E+01  5.239E-25  9.266E-16
6.607E+01  5.257E-25  9.214E-16
6.546E+01  5.276E-25  9.161E-16
6.486E+01  5.295E-25  9.110E-16
6.427E+01  5.313E-25  9.058E-16
6.368E+01  5.332E-25  9.007E-16
6.310E+01  5.351E-25  8.956E-16
6.252E+01  5.371E-25  8.907E-16
6.194E+01  5.391E-25  8.858E-16
6.138E+01  5.411E-25  8.810E-16
6.081E+01  5.432E-25  8.762E-16
6.026E+01  5.452E-25  8.715E-16
5.970E+01  5.473E-25  8.667E-16
5.916E+01  5.494E-25  8.621E-16
5.861E+01  5.514E-25  8.573E-16
5.808E+01  5.535E-25  8.527E-16
5.754E+01  5.556E-25  8.481E-16
5.702E+01  5.578E-25  8.436E-16
5.649E+01  5.600E-25  8.392E-16
5.598E+01  5.622E-25  8.348E-16
5.546E+01  5.645E-25  8.305E-16
5.495E+01  5.669E-25  8.263E-16
5.445E+01  5.693E-25  8.222E-16
5.395E+01  5.717E-25  8.181E-16
5.346E+01  5.742E-25  8.142E-16
5.297E+01  5.767E-25  8.102E-16
5.248E+01  5.792E-25  8.063E-16
5.200E+01  5.818E-25  8.025E-16
5.152E+01  5.844E-25  7.987E-16
5.105E+01  5.870E-25  7.949E-16
5.058E+01  5.897E-25  7.913E-16
5.012E+01  5.925E-25  7.876E-16
4.966E+01  5.952E-25  7.840E-16
